CLOSED
Version	1.0
Language	English
Run	1
RunSerial	820
Instrument	TGA Q500 V6.7 Build 203
Module	TGA
InstSerial	0500-0499
Operator	at615
File	C:\TA\Data\TGA\ak794\anders\cellulose nanorods 1.001
FurnaceType	Standard
Sample	Cellulose Nanorods 1 Air
Size	4.70800	mg
ProcName
Method	
Comment	
Xcomment	Pan: Platinum
Xcomment	Gas1: Air
Xcomment	Gas2: Air
Xcomment	Balance Gas: Air 40.0 ml/min
Xcomment	Sample Gas: Air 60.0 ml/min
Text	cellulose nanorods degradation in air
Kcell	1.00000
TempCal	3	pts	20.00	20.00,364.00	356.00,776.00	770.00
InstCalDate	Weight Date 2013-03-01 10:10:44
Controls	Gas 2  Event Off  Sampling 2.0
Nsig	5
Sig1	Time (min)
Sig2	Temperature (°C)
Sig3	Weight (mg)
Sig4	Balance Purge Flow (mL/min)
Sig5	Sample Purge Flow (mL/min)
AirCoolTime	20.0 min
AutoAnalysis	Off
MacroFile
Date	2013-03-11
Time	11:27:22
OrgMethod	1: Ramp 10.00 °C/min to 600.00 °C
OrgFile	C:\Users\AIM_Group\Desktop\post doc cambridge\Students files\Internships\Anders\anders tga\anders\cellulose nanorods 1.001
6.66667E-4 18.70534 4.708418 39.99904 59.99120
0.01666667 18.71425 4.708730 39.99424 60.00894
0.05000000 18.73930 4.709024 39.99606 59.98738
0.08333334 18.78952 4.709008 39.99572 60.00139
0.1166666 18.86459 4.709222 40.00119 60.00902
0.1500000 18.96382 4.709231 40.01214 60.00628
0.1833334 19.08654 4.709687 39.98441 59.98956
0.2166667 19.22838 4.710160 40.00653 59.99690
0.2500000 19.38886 4.710312 40.00102 60.00084
0.2833333 19.56378 4.710621 40.01447 60.01209
0.3166666 19.75446 4.710774 39.99174 59.99848
0.3500000 19.95650 4.711206 39.99888 59.99613
0.3833333 20.17046 4.711398 40.00416 59.99156
0.4166666 20.39504 4.710935 39.98694 60.00538
0.4500000 20.63003 4.710736 40.01768 60.01108
0.4833333 20.87325 4.710308 39.99761 59.98902
0.5166666 21.12406 4.710340 39.99470 59.99838
0.5500000 21.38206 4.710066 39.99280 60.00535
0.5833332 21.64636 4.709798 40.00474 59.99889
0.6166668 21.91822 4.709710 39.99200 60.00903
0.6500000 22.19580 4.709900 40.00376 59.98686
0.6833334 22.47617 4.710500 40.00665 60.00718
0.7166666 22.76294 4.710250 39.99810 59.98640
0.7500000 23.05295 4.710500 39.99269 60.01172
0.7833334 23.34598 4.710504 40.01415 60.00060
0.8166668 23.64387 4.710370 39.98738 60.00440
0.8500000 23.94588 4.710122 39.99883 59.98611
0.8833332 24.24960 4.709928 40.02269 60.00870
0.9166668 24.55564 4.710086 39.99118 59.99988
0.9500000 24.86438 4.710231 39.99092 59.99666
0.9833334 25.17582 4.709928 40.00467 60.00430
1.016667 25.48925 4.709537 40.01200 60.00050
1.050000 25.80453 4.708900 39.98342 59.99370
1.083334 26.12106 4.708937 40.00917 60.00730
1.116667 26.43837 4.708630 39.99785 60.00699
1.150000 26.75652 4.708496 39.98755 59.98676
1.183333 27.07646 4.708574 40.00511 60.00722
1.216667 27.39790 4.708454 40.00189 59.99621
1.250000 27.71905 4.708219 40.00725 59.99467
1.283333 28.04069 4.707817 39.99400 60.01134
1.316667 28.36253 4.708144 40.00206 59.98660
1.350000 28.68506 4.708326 39.99932 60.00690
1.383333 29.00785 4.708064 39.99383 60.00410
1.416666 29.33247 4.707541 40.00290 59.99864
1.450000 29.65505 4.707038 40.00356 60.00161
1.483334 29.97894 4.706687 39.98826 59.99149
1.516666 30.30113 4.706484 40.00711 59.99883
1.550000 30.62559 4.706500 40.00205 60.00215
1.583334 30.95002 4.706447 40.00620 60.00127
1.616666 31.27440 4.706176 39.98965 60.00012
1.650000 31.59704 4.706030 40.00512 59.99824
1.683333 31.91967 4.705818 39.99875 60.00766
1.716667 32.24333 4.705310 39.99934 59.99648
1.750000 32.56610 4.704949 40.01609 59.99995
1.783333 32.88882 4.705042 39.98964 59.99889
1.816667 33.21262 4.705056 40.00409 60.00335
1.850000 33.53460 4.704693 39.98656 59.99557
1.883334 33.85848 4.703825 40.00134 59.99484
1.916666 34.18022 4.703585 39.99968 59.99710
1.950000 34.50156 4.703739 40.00284 60.01389
1.983334 34.82478 4.704336 39.99431 59.98837
2.016666 35.14815 4.703447 40.00774 60.00166
2.050000 35.46882 4.702779 40.00608 60.00482
2.083333 35.78993 4.701981 39.98938 60.00082
2.116666 36.11276 4.702199 40.01146 60.00715
2.150000 36.43447 4.702484 39.99230 59.98652
2.183334 36.75622 4.702316 40.01164 60.01440
2.216667 37.07866 4.702100 39.99477 59.98500
2.250000 37.40042 4.701935 39.98786 60.00400
2.283333 37.72228 4.700903 39.99836 59.99553
2.316666 38.04411 4.700574 40.00232 60.00093
2.350000 38.36502 4.700258 40.01782 60.00678
2.383334 38.68695 4.700063 39.97910 59.99038
2.416667 39.00919 4.699977 40.00037 60.00450
2.450000 39.33034 4.699954 39.99532 59.99478
2.483334 39.65200 4.699646 40.01788 60.01684
2.516666 39.97496 4.699174 39.98810 59.99680
2.550000 40.29481 4.698834 40.00572 60.00263
2.583333 40.61680 4.698282 39.99246 59.99494
2.616666 40.94036 4.697876 40.00972 60.00385
2.650000 41.26186 4.697788 39.98955 59.99656
2.683334 41.58458 4.697809 39.99844 59.99337
2.716667 41.90671 4.697372 40.00450 60.00925
2.750000 42.22925 4.697016 40.01013 59.99490
2.783333 42.55291 4.696716 39.98599 59.99112
2.816666 42.87626 4.696409 39.99918 60.01182
2.850000 43.19894 4.695734 40.00439 59.99114
2.883334 43.52066 4.695040 40.01406 60.00516
2.916667 43.84488 4.695109 39.99346 60.00184
2.950000 44.16853 4.694914 40.00125 59.99710
2.983334 44.49258 4.694676 39.99630 60.00150
3.016666 44.81638 4.694568 40.01030 59.99974
3.050000 45.14215 4.694124 39.98852 59.99047
3.083333 45.46625 4.693818 39.99606 60.01176
3.116666 45.79096 4.693570 40.00556 60.00620
3.150000 46.11529 4.693207 40.01789 59.99178
3.183334 46.44072 4.692916 39.97780 59.99540
3.216667 46.76680 4.692660 40.00340 60.00630
3.250000 47.09122 4.692459 40.00654 59.99352
3.283333 47.41695 4.691980 39.98972 60.00408
3.316666 47.74164 4.691438 39.99837 59.99830
3.350000 48.06918 4.691278 40.00878 60.00974
3.383334 48.39708 4.691100 39.99887 59.99086
3.416667 48.72382 4.690664 39.99750 59.99861
3.450000 49.04831 4.690059 39.99560 60.00512
3.483333 49.37510 4.689450 40.01105 60.00239
3.516667 49.70122 4.689119 39.99669 59.99534
3.550000 50.02963 4.689038 40.00286 59.99720
3.583333 50.35813 4.688852 39.99409 60.00295
3.616666 50.68574 4.688534 40.00086 60.00464
3.650000 51.01297 4.687962 39.99667 59.99071
3.683334 51.33985 4.687085 40.01623 60.00870
3.716667 51.66807 4.686739 39.98088 59.99741
3.750000 51.99578 4.686940 40.00275 59.99180
3.783333 52.32534 4.686591 40.00027 60.00168
3.816666 52.65370 4.686172 40.01902 60.00572
3.850000 52.98230 4.685698 39.98462 59.99729
3.883334 53.31045 4.685280 39.99469 60.00743
3.916667 53.64006 4.684844 40.00287 59.98980
3.950000 53.96861 4.684846 39.99770 60.00701
3.983333 54.29902 4.684717 39.99500 60.00224
4.016667 54.62766 4.684199 40.01490 60.00328
4.050000 54.95675 4.683934 39.99588 59.99550
4.083334 55.28742 4.683654 39.99548 59.99839
4.116667 55.61674 4.683150 40.00637 59.99466
4.150000 55.94631 4.682627 39.99730 60.00647
4.183334 56.27620 4.682187 40.00026 59.99063
4.216667 56.60694 4.681708 40.01683 60.00618
4.250000 56.93840 4.681710 39.97695 60.01300
4.283333 57.26849 4.681616 40.00894 59.98403
4.316666 57.59951 4.681181 39.99586 60.01201
4.350000 57.93026 4.680392 40.02220 59.99092
4.383333 58.26075 4.679808 39.98134 60.00384
4.416666 58.59138 4.679388 39.99382 59.99140
4.450000 58.92296 4.679300 40.00922 60.00489
4.483333 59.25357 4.678784 39.99418 60.00272
4.516667 59.58796 4.678967 40.00212 60.00328
4.550000 59.91900 4.678758 39.98874 59.99746
4.583334 60.25045 4.678161 40.01653 59.99888
4.616667 60.58230 4.677969 39.99584 59.99958
4.650000 60.91324 4.677266 40.00886 59.99684
4.683334 61.24413 4.676706 39.98148 60.00713
4.716667 61.57598 4.676309 40.00063 59.99631
4.750000 61.90824 4.675490 39.99774 60.00660
4.783333 62.23940 4.675612 40.02000 59.98782
4.816666 62.57123 4.675089 39.97422 60.00156
4.850000 62.90359 4.674635 40.01389 60.01380
4.883333 63.23413 4.674086 40.01248 60.00090
4.916666 63.56568 4.673867 39.97672 59.98700
4.950000 63.89998 4.673618 40.01850 59.99840
4.983333 64.23287 4.673422 39.99300 60.01911
5.016667 64.56629 4.672956 39.99301 59.98657
5.050000 64.89876 4.672545 40.00834 60.00928
5.083334 65.23182 4.672294 39.99720 59.99276
5.116667 65.56545 4.672116 39.99353 60.00789
5.150000 65.89838 4.671682 39.99622 59.97452
5.183334 66.23020 4.671020 40.00578 60.01306
5.216667 66.56360 4.670694 39.99348 60.00099
5.250000 66.89538 4.669916 40.01040 60.00097
5.283332 67.22784 4.669713 39.99472 60.00138
5.316666 67.56110 4.669266 39.99462 60.00342
5.350000 67.89319 4.668628 40.00398 59.99426
5.383332 68.22618 4.668168 40.01150 60.00532
5.416666 68.55872 4.667740 40.00278 59.99902
5.450000 68.89098 4.667164 39.99207 59.98524
5.483332 69.22394 4.666711 39.99254 60.00370
5.516668 69.55655 4.666450 40.00764 60.00213
5.550000 69.89106 4.666228 40.00488 60.00870
5.583334 70.22495 4.665894 40.00237 59.99768
5.616668 70.55900 4.665463 39.99472 60.00168
5.650000 70.89100 4.664737 39.99754 60.00121
5.683334 71.22442 4.664350 40.00198 59.99635
5.716668 71.55871 4.664118 40.00100 60.00520
5.750000 71.89166 4.663690 39.99610 59.99000
5.783332 72.22570 4.663234 40.00584 60.00828
5.816666 72.55900 4.662850 39.99453 59.99913
5.850000 72.89225 4.662293 40.00370 60.00058
5.883332 73.22543 4.661744 39.99451 59.99374
5.916666 73.55790 4.661434 40.00944 59.99627
5.950000 73.89166 4.661204 39.99076 60.00412
5.983332 74.22678 4.660796 40.00074 60.00449
6.016668 74.55900 4.660156 40.00844 59.99609
6.050000 74.89163 4.659650 39.99817 60.00196
6.083334 75.22530 4.659049 40.00061 59.99411
6.116668 75.55835 4.658552 39.98494 60.01050
6.150000 75.89190 4.658271 40.01642 59.99937
6.183334 76.22500 4.657988 39.99664 59.99174
6.216668 76.55919 4.657563 40.00404 60.00212
6.250000 76.89250 4.657152 39.98941 59.99957
6.283332 77.22608 4.656384 40.00336 59.99660
6.316666 77.56084 4.655758 39.99875 59.99940
6.350000 77.89337 4.655232 40.00225 60.00230
6.383332 78.22732 4.654814 39.99365 59.99851
6.416666 78.56153 4.654533 40.00726 60.01044
6.450000 78.89374 4.653933 40.00237 59.99676
6.483332 79.22866 4.653213 39.99412 59.99832
6.516668 79.56176 4.652637 40.00831 59.99750
6.550000 79.89478 4.652287 39.99092 60.00092
6.583334 80.22808 4.651752 39.99994 59.99478
6.616668 80.56272 4.651364 39.99950 60.00382
6.650000 80.89706 4.651071 40.00378 60.00142
6.683334 81.23135 4.650613 39.99680 59.99426
6.716666 81.56434 4.650047 40.01183 60.00735
6.750000 81.89934 4.649640 39.99304 59.99600
6.783334 82.23165 4.648929 39.99187 60.00178
6.816666 82.56687 4.648766 40.00466 60.00056
6.850000 82.90228 4.648782 40.00711 59.99818
6.883332 83.23555 4.648106 40.00408 60.00910
6.916666 83.57020 4.647559 39.98782 59.99680
6.950000 83.90304 4.647036 40.00730 60.00171
6.983332 84.23582 4.646308 39.99039 60.00346
7.016668 84.56892 4.645570 40.00180 59.99044
7.050000 84.90259 4.645248 40.00616 60.00842
7.083334 85.23554 4.644630 39.99452 59.99430
7.116668 85.56915 4.644153 39.99961 59.99512
7.150000 85.90380 4.643918 39.99933 60.00068
7.183334 86.23895 4.644102 40.00228 60.00762
7.216666 86.57201 4.643907 40.00171 59.99000
7.250000 86.90549 4.643144 39.99766 60.00942
7.283334 87.23749 4.642285 39.99859 59.99778
7.316666 87.57079 4.641919 40.00140 59.99800
7.350000 87.90328 4.641426 39.99428 60.00090
7.383332 88.23908 4.641150 40.00012 60.00136
7.416666 88.57343 4.641180 40.00402 59.99984
7.450000 88.90662 4.640013 39.99990 60.00234
7.483332 89.24181 4.639360 40.00417 59.99679
7.516668 89.57550 4.638367 39.99490 60.00531
7.550000 89.91028 4.638172 40.02054 59.99724
7.583334 90.24580 4.637984 39.97600 59.99720
7.616668 90.57755 4.637216 40.00478 59.99900
7.650000 90.91007 4.636457 40.00034 60.00175
7.683334 91.24371 4.635642 40.01033 59.99590
7.716666 91.57609 4.635101 39.98642 60.00720
7.750000 91.90892 4.634530 40.00269 60.00092
7.783334 92.24169 4.634137 40.00162 59.99870
7.816666 92.57504 4.633728 40.00622 59.99247
7.850000 92.90949 4.633360 39.99356 60.00648
7.883332 93.24269 4.632859 39.99472 59.99650
7.916666 93.57568 4.632074 40.00392 60.00639
7.950000 93.90778 4.631498 40.00658 59.98750
7.983332 94.24261 4.631424 39.99748 60.00652
8.016666 94.57709 4.631140 40.00022 59.99796
8.050000 94.91199 4.630761 40.00587 60.00008
8.083332 95.24850 4.630722 39.99362 60.00027
8.116668 95.58139 4.629944 39.99984 60.00086
8.150000 95.91328 4.628922 39.99722 59.99331
8.183334 96.24528 4.628090 40.00710 60.00470
8.216666 96.57638 4.627322 39.99288 60.00576
8.250000 96.90824 4.626930 40.00278 59.99001
8.283334 97.24194 4.626724 40.00376 60.00496
8.316666 97.57605 4.626339 39.99312 59.99837
8.350000 97.90929 4.625888 40.00322 60.00224
8.383332 98.24325 4.625262 39.99542 59.99631
8.416668 98.57706 4.624668 40.00841 59.99798
8.450000 98.91063 4.624303 39.99617 60.01448
8.483334 99.24431 4.623784 39.99508 59.99213
8.516666 99.57629 4.623041 40.00217 60.00130
8.550000 99.90853 4.622588 39.99798 59.99898
8.583332 100.2436 4.622171 40.00539 59.99124
8.616668 100.5775 4.621758 39.99546 60.00516
8.650000 100.9116 4.621240 40.00629 60.00256
8.683334 101.2459 4.620754 40.00006 59.99854
8.716666 101.5782 4.620080 39.99924 60.00312
8.750000 101.9107 4.619336 39.99824 59.99324
8.783334 102.2435 4.618676 39.99636 60.00255
8.816666 102.5757 4.618452 40.00676 60.00632
8.850000 102.9084 4.618006 40.00322 59.99246
8.883332 103.2424 4.617446 40.00260 60.00754
8.916668 103.5768 4.617210 39.98734 60.00098
8.950000 103.9108 4.616630 40.00400 59.99838
8.983334 104.2455 4.616081 40.00522 59.99060
9.016666 104.5788 4.615506 40.00840 60.00010
9.050000 104.9130 4.615146 39.98989 60.00852
9.083332 105.2452 4.614488 39.99322 60.00123
9.116668 105.5796 4.613914 40.00330 59.99484
9.150000 105.9120 4.613374 39.99524 59.99511
9.183334 106.2452 4.612664 40.00283 60.00955
9.216666 106.5769 4.612107 39.99794 59.99732
9.250000 106.9102 4.611433 40.00066 60.00258
9.283334 107.2428 4.610969 40.00686 59.99389
9.316666 107.5768 4.610550 39.99834 60.00373
9.350000 107.9108 4.610244 39.99360 59.99844
9.383332 108.2458 4.609997 39.99700 59.99776
9.416668 108.5789 4.609090 40.00002 60.00741
9.450000 108.9127 4.608554 40.00140 59.99234
9.483334 109.2456 4.608072 40.00637 60.00152
9.516666 109.5780 4.607270 40.00117 59.99949
9.550000 109.9112 4.606865 40.00082 60.00584
9.583332 110.2446 4.606259 39.99870 59.99939
9.616668 110.5779 4.605816 39.99344 59.99156
9.650000 110.9106 4.605134 40.00687 60.00460
9.683334 111.2441 4.604554 40.00784 60.00764
9.716666 111.5775 4.604287 39.98572 59.99432
9.750000 111.9108 4.603750 40.00469 60.00418
9.783334 112.2438 4.603000 39.99841 59.99300
9.816666 112.5773 4.602412 40.01315 59.99906
9.850000 112.9111 4.601944 39.98684 60.00420
9.883332 113.2437 4.601422 39.99590 60.00208
9.916668 113.5777 4.600834 39.99904 59.99910
9.950000 113.9109 4.600115 40.00656 60.00068
9.983334 114.2442 4.599672 40.00340 59.99071
10.01667 114.5770 4.598896 39.99600 60.01210
10.05000 114.9098 4.598580 39.99416 59.98668
10.08333 115.2453 4.598350 40.00833 60.00112
10.11667 115.5806 4.598010 39.99646 60.00962
10.15000 115.9139 4.597264 40.00320 59.99445
10.18333 116.2470 4.596406 39.99250 59.99912
10.21667 116.5787 4.595743 40.00938 60.00791
10.25000 116.9130 4.595361 39.99396 59.99894
10.28333 117.2477 4.595080 40.00954 59.98884
10.31667 117.5834 4.594816 39.99813 60.00445
10.35000 117.9173 4.594081 39.99236 59.99604
10.38333 118.2497 4.593191 39.99750 60.00166
10.41667 118.5836 4.592810 40.00564 60.00602
10.45000 118.9166 4.592266 39.99408 59.99852
10.48333 119.2498 4.591748 40.00306 59.99816
10.51666 119.5828 4.591067 40.00378 60.00902
10.55000 119.9143 4.590343 40.00554 59.98868
10.58333 120.2480 4.589956 39.99834 60.01030
10.61667 120.5812 4.589527 39.99641 59.99382
10.65000 120.9130 4.588713 40.00002 60.00410
10.68334 121.2462 4.588287 39.99489 60.00182
10.71666 121.5801 4.587952 40.00094 59.98511
10.75000 121.9140 4.587402 40.00111 60.01284
10.78334 122.2480 4.586939 39.99822 59.99900
10.81666 122.5808 4.586475 40.00659 59.99940
10.85000 122.9136 4.585902 39.99366 60.00169
10.88333 123.2479 4.585809 39.99880 59.99610
10.91667 123.5804 4.585326 40.00465 60.00675
10.95000 123.9141 4.584628 40.00601 59.99688
10.98334 124.2460 4.583956 39.98853 60.00362
11.01666 124.5790 4.583352 40.01336 59.99168
11.05000 124.9112 4.582816 39.99362 60.00356
11.08333 125.2466 4.582348 40.00325 59.99638
11.11667 125.5810 4.582011 40.00110 60.00322
11.15000 125.9150 4.581554 40.00140 60.00470
11.18334 126.2485 4.580869 39.99530 59.98839
11.21666 126.5797 4.579954 40.00189 60.00079
11.25000 126.9111 4.579257 39.99465 60.00126
11.28334 127.2443 4.578902 39.99695 60.00284
11.31666 127.5774 4.578410 40.00199 60.00530
11.35000 127.9116 4.577807 40.00284 59.99015
11.38333 128.2458 4.577610 39.99846 60.00578
11.41667 128.5807 4.577142 40.00642 59.99360
11.45000 128.9137 4.576435 39.98708 60.00688
11.48334 129.2462 4.575855 40.01174 59.99255
11.51666 129.5806 4.575492 39.99808 60.00170
11.55000 129.9124 4.574611 39.99754 60.00742
11.58333 130.2464 4.574226 39.99776 60.00156
11.61667 130.5787 4.573514 40.00857 59.98601
11.65000 130.9104 4.572685 39.98822 60.01458
11.68334 131.2449 4.572470 40.01217 59.98724
11.71666 131.5795 4.572096 39.99456 60.01813
11.75000 131.9108 4.571407 39.99310 59.98972
11.78334 132.2430 4.570570 39.99782 60.00668
11.81666 132.5786 4.570269 40.00037 59.99502
11.85000 132.9106 4.569723 40.00036 59.99855
11.88333 133.2438 4.569070 40.00576 59.99789
11.91667 133.5789 4.568917 40.00598 60.00097
11.95000 133.9130 4.568287 39.98957 60.00342
11.98334 134.2469 4.567636 39.99953 59.99852
12.01666 134.5788 4.566978 40.00050 59.99834
12.05000 134.9135 4.566610 40.00054 59.99628
12.08333 135.2464 4.566120 39.99690 60.00718
12.11667 135.5795 4.565454 40.01193 59.99145
12.15000 135.9115 4.564720 39.99147 60.00950
12.18334 136.2424 4.563921 39.99814 59.99934
12.21666 136.5745 4.563301 40.00898 59.98934
12.25000 136.9073 4.562796 39.99541 60.01092
12.28334 137.2405 4.562390 40.00237 59.99986
12.31666 137.5746 4.561840 39.99120 60.00530
12.35000 137.9090 4.561458 40.01140 59.99140
12.38333 138.2414 4.560838 39.99379 60.01376
12.41667 138.5744 4.560204 39.99395 59.98811
12.45000 138.9086 4.559654 40.00855 59.99976
12.48334 139.2413 4.559070 40.00250 60.00568
12.51666 139.5761 4.558653 40.00019 60.00395
12.55000 139.9104 4.558297 40.00525 59.98824
12.58333 140.2440 4.557720 40.00302 59.99668
12.61667 140.5776 4.557110 39.99828 59.99654
12.65000 140.9101 4.556396 39.99263 60.01362
12.68334 141.2422 4.555804 40.00798 59.98821
12.71666 141.5750 4.555225 39.98671 59.99804
12.75000 141.9098 4.554932 39.99075 60.00666
12.78334 142.2439 4.554446 40.00738 59.99555
12.81667 142.5754 4.553600 40.00699 60.01295
12.85000 142.9074 4.552804 40.00116 60.00365
12.88333 143.2402 4.552338 39.99645 59.99350
12.91667 143.5734 4.551870 39.99012 59.99449
12.95000 143.9077 4.551444 40.00084 59.99494
12.98334 144.2427 4.551093 40.01190 60.01365
13.01666 144.5769 4.550626 40.00379 59.98479
13.05000 144.9081 4.549710 39.99025 59.99910
13.08333 145.2427 4.549230 40.00342 60.00524
13.11667 145.5757 4.548887 40.00462 59.99368
13.15000 145.9087 4.548214 39.99863 60.00390
13.18333 146.2423 4.547698 40.00046 59.99730
13.21666 146.5754 4.547148 40.00317 60.01665
13.25000 146.9092 4.546726 39.98902 59.99604
13.28334 147.2419 4.545984 39.99502 59.99686
13.31667 147.5736 4.545376 40.00160 59.99740
13.35000 147.9077 4.544781 40.01212 60.00175
13.38333 148.2448 4.544885 39.98489 59.99134
13.41667 148.5786 4.544360 40.01619 60.00549
13.45000 148.9066 4.543015 39.98993 60.00620
13.48334 149.2415 4.542569 39.99760 59.99102
13.51666 149.5746 4.542172 39.99971 60.00717
13.55000 149.9083 4.541687 40.00446 60.00574
13.58333 150.2409 4.541086 40.01217 59.98441
13.61667 150.5734 4.540348 39.99750 60.01059
13.65000 150.9068 4.539910 39.99942 60.00103
13.68333 151.2434 4.539850 39.99584 59.99406
13.71666 151.5759 4.539224 39.99370 60.00462
13.75000 151.9083 4.538356 40.00232 60.00644
13.78334 152.2400 4.537671 39.99518 60.00054
13.81667 152.5730 4.537100 40.00362 59.99036
13.85000 152.9066 4.536590 40.01224 59.99347
13.88333 153.2404 4.535870 39.98631 59.99692
13.91667 153.5718 4.535326 40.00807 60.00286
13.95000 153.9036 4.534692 39.99904 60.01192
13.98334 154.2359 4.533980 39.99492 59.99426
14.01666 154.5700 4.533731 40.00839 60.00293
14.05000 154.9057 4.533540 39.98880 59.99329
14.08333 155.2413 4.533316 40.00852 60.00390
14.11667 155.5774 4.532965 39.99470 60.00569
14.15000 155.9101 4.532070 40.00428 59.99674
14.18333 156.2443 4.531561 39.99998 59.98863
14.21666 156.5776 4.530970 40.00464 60.00567
14.25000 156.9082 4.529992 39.98968 60.00824
14.28334 157.2390 4.529356 40.00454 59.99146
14.31667 157.5711 4.528713 39.99631 60.01004
14.35000 157.9039 4.528171 39.99596 59.99155
14.38333 158.2364 4.527914 39.99697 60.00055
14.41667 158.5699 4.527266 40.01028 59.99770
14.45000 158.9039 4.526752 39.99494 59.99542
14.48334 159.2397 4.526740 40.01213 60.00597
14.51666 159.5682 4.525396 39.99124 60.01066
14.55000 159.9021 4.524893 40.00824 59.98800
14.58333 160.2344 4.524491 39.98761 60.01052
14.61667 160.5664 4.523876 40.00031 59.99690
14.65000 160.9010 4.523399 40.00598 59.99082
14.68333 161.2351 4.523012 39.99889 60.00746
14.71666 161.5690 4.522534 40.00428 60.00070
14.75000 161.9029 4.521866 39.99056 59.98982
14.78334 162.2368 4.521506 39.99896 60.00893
14.81667 162.5695 4.520819 40.00722 60.00142
14.85000 162.8997 4.519734 40.00234 59.99818
14.88333 163.2299 4.518960 40.00280 60.00493
14.91667 163.5652 4.518835 39.99420 59.99042
14.95000 163.9024 4.518836 39.99470 60.00006
14.98334 164.2381 4.518432 40.00467 60.00488
15.01666 164.5746 4.518218 40.01259 59.99537
15.05000 164.9082 4.517463 39.98210 60.00124
15.08333 165.2383 4.516435 40.00598 59.99515
15.11667 165.5693 4.515628 39.99847 60.00430
15.15000 165.9002 4.514920 39.99740 59.99963
15.18333 166.2298 4.514090 40.00313 60.01550
15.21666 166.5613 4.513502 39.99400 59.98386
15.25000 166.8922 4.512891 40.01240 59.99716
15.28334 167.2261 4.512582 39.99262 60.00500
15.31667 167.5604 4.512309 40.00630 60.00598
15.35000 167.8942 4.511720 39.99832 60.00586
15.38333 168.2275 4.511050 39.99900 59.97937
15.41667 168.5619 4.510600 39.99106 60.01421
15.45000 168.8994 4.510556 40.00770 59.99403
15.48334 169.2346 4.510058 40.00132 60.00239
15.51666 169.5663 4.509350 39.99926 60.00176
15.55000 169.8981 4.508562 40.01472 59.99246
15.58333 170.2309 4.507679 39.98818 60.00157
15.61667 170.5632 4.507264 39.99927 60.00068
15.65000 170.8941 4.506330 40.00095 60.01232
15.68333 171.2252 4.505650 39.99285 59.98848
15.71666 171.5564 4.504997 40.00490 60.00389
15.75000 171.8894 4.504517 39.99615 59.99207
15.78334 172.2206 4.503836 39.99923 60.02004
15.81667 172.5548 4.503403 40.00148 59.98401
15.85000 172.8908 4.503400 40.00446 60.00846
15.88333 173.2256 4.502813 39.99734 59.99914
15.91667 173.5583 4.502002 39.99746 60.00123
15.95000 173.8907 4.501191 40.00156 59.99230
15.98334 174.2248 4.500722 39.99736 60.00510
16.01666 174.5582 4.500146 40.00022 59.99690
16.05000 174.8932 4.499863 40.00072 59.99510
16.08334 175.2260 4.499070 40.00128 60.00855
16.11667 175.5621 4.498690 39.99994 60.00270
16.15000 175.8955 4.498183 40.00694 59.99240
16.18333 176.2262 4.497205 39.99658 59.99750
16.21667 176.5582 4.496414 39.99624 60.00373
16.25000 176.8922 4.495996 40.00437 60.00132
16.28333 177.2241 4.495358 40.00628 59.99672
16.31667 177.5572 4.494752 39.99317 59.99700
16.35000 177.8914 4.494289 40.01213 60.00976
16.38333 178.2225 4.493596 39.98657 60.00084
16.41666 178.5554 4.492890 40.00481 59.99348
16.45000 178.8889 4.492385 39.99008 59.99646
16.48334 179.2215 4.491819 39.99524 59.99378
16.51666 179.5542 4.491150 40.00633 60.02002
16.55000 179.8865 4.490372 40.00520 59.98762
16.58334 180.2191 4.489630 39.99432 60.00776
16.61667 180.5524 4.488989 40.01009 59.99996
16.65000 180.8835 4.488262 39.99824 59.98943
16.68333 181.2175 4.487735 39.99276 60.00642
16.71667 181.5533 4.487391 40.00124 60.00416
16.75000 181.8878 4.486791 40.00413 59.99496
16.78333 182.2218 4.485988 40.00211 59.99160
16.81667 182.5563 4.485384 39.98522 60.00070
16.85000 182.8887 4.484814 40.01045 60.00322
16.88333 183.2212 4.484062 40.01471 59.99963
16.91666 183.5530 4.483356 39.98775 60.00040
16.95000 183.8862 4.482544 40.00132 60.00918
16.98334 184.2184 4.481858 39.99962 59.99891
17.01666 184.5523 4.481137 39.98960 59.99350
17.05000 184.8821 4.479896 40.00568 60.01084
17.08334 185.2132 4.478632 40.00100 59.98742
17.11667 185.5534 4.478470 39.99700 60.01390
17.15000 185.8900 4.477882 40.01273 59.98960
17.18333 186.2226 4.475941 39.98369 59.99856
17.21667 186.5530 4.474344 40.01033 60.00799
17.25000 186.8836 4.472866 40.00281 59.99030
17.28333 187.2147 4.471624 39.98486 60.00381
17.31667 187.5472 4.470446 40.00250 60.00121
17.35000 187.8780 4.469126 39.99918 59.99361
17.38333 188.2138 4.468284 40.00578 60.00312
17.41666 188.5461 4.467064 40.00176 59.99682
17.45000 188.8784 4.465604 39.99362 60.00459
17.48334 189.2126 4.464467 40.00174 60.00012
17.51666 189.5441 4.462872 40.00050 60.00268
17.55000 189.8779 4.461472 39.99604 59.99510
17.58334 190.2119 4.460342 40.00384 60.00490
17.61667 190.5503 4.459300 39.99741 60.00242
17.65000 190.8905 4.458545 40.00215 59.99074
17.68333 191.2221 4.456744 39.99843 59.99806
17.71667 191.5538 4.454687 40.01182 60.00845
17.75000 191.8881 4.453256 39.99775 59.99126
17.78333 192.2201 4.451694 39.99676 60.00740
17.81667 192.5560 4.450381 40.00322 59.99626
17.85000 192.8836 4.448360 39.99727 60.00990
17.88333 193.2103 4.446175 39.99421 59.99578
17.91666 193.5408 4.444544 40.01122 59.99588
17.95000 193.8744 4.443113 39.98804 59.99934
17.98334 194.2125 4.442164 39.99964 59.99262
18.01666 194.5462 4.440566 40.00093 60.01963
18.05000 194.8790 4.438769 40.00003 59.99269
18.08334 195.2101 4.436912 39.99974 59.99171
18.11667 195.5414 4.434910 40.00409 60.00546
18.15000 195.8752 4.433424 40.00460 59.99377
18.18333 196.2088 4.431763 40.00176 60.00030
18.21667 196.5436 4.430154 40.00060 59.99998
18.25000 196.8767 4.428282 39.98920 60.00836
18.28333 197.2103 4.426316 40.00332 60.00376
18.31667 197.5425 4.424484 39.99402 59.99480
18.35000 197.8796 4.423114 39.99866 59.99576
18.38333 198.2127 4.421230 40.00685 59.99878
18.41666 198.5487 4.419780 40.00042 60.00295
18.45000 198.8829 4.417889 39.99506 59.99742
18.48334 199.2175 4.416078 40.01326 60.01055
18.51666 199.5527 4.414566 39.98687 60.00380
18.55000 199.8858 4.412774 40.00920 59.98988
18.58334 200.2158 4.410540 39.99339 60.00636
18.61667 200.5459 4.408481 40.00306 59.99510
18.65000 200.8768 4.406576 39.99946 60.00459
18.68333 201.2074 4.404840 39.99594 59.99191
18.71667 201.5390 4.403000 40.01020 60.00772
18.75000 201.8750 4.401526 39.98833 59.98985
18.78333 202.2090 4.399886 40.00830 60.00709
18.81667 202.5467 4.398511 40.00140 60.00012
18.85000 202.8845 4.397183 39.99050 59.99026
18.88333 203.2196 4.395162 40.00469 60.00274
18.91666 203.5582 4.393832 40.00586 60.00124
18.95000 203.8901 4.391731 39.99883 60.00837
18.98334 204.2240 4.389925 39.99232 60.00103
19.01666 204.5551 4.387859 39.99690 59.98746
19.05000 204.8874 4.385887 40.00506 60.00818
19.08334 205.2168 4.383797 39.99638 59.99226
19.11667 205.5484 4.381629 40.00383 60.01048
19.15000 205.8808 4.379774 40.01326 60.00376
19.18333 206.2155 4.378208 39.99072 60.00220
19.21667 206.5469 4.376228 39.99274 59.98589
19.25000 206.8825 4.374354 40.00986 59.99750
19.28333 207.2183 4.372731 39.98547 60.01211
19.31667 207.5501 4.370436 40.00426 59.99951
19.35000 207.8812 4.368091 39.99664 59.99668
19.38333 208.2108 4.365699 40.01813 59.99832
19.41666 208.5426 4.363624 39.99927 60.01910
19.45000 208.8745 4.361526 39.98883 59.98652
19.48334 209.2094 4.359583 39.99804 59.99055
19.51666 209.5445 4.357750 40.00842 60.00981
19.55000 209.8771 4.355611 39.99790 59.99884
19.58334 210.2145 4.353384 39.99524 60.00115
19.61667 210.5510 4.351702 40.00557 59.98426
19.65000 210.8808 4.348934 39.99421 60.00708
19.68333 211.2153 4.346572 39.99578 59.99682
19.71667 211.5508 4.344608 40.00256 60.00301
19.75000 211.8825 4.342152 40.00949 60.01006
19.78333 212.2130 4.339234 39.99744 59.98856
19.81667 212.5440 4.336566 39.99096 60.00963
19.85000 212.8754 4.334075 40.00256 60.00502
19.88333 213.2104 4.332026 40.00922 59.98331
19.91666 213.5414 4.329288 39.99795 59.99968
19.95000 213.8792 4.327320 39.98792 60.00546
19.98334 214.2116 4.324720 39.99979 59.99570
20.01666 214.5423 4.321676 40.01085 60.01223
20.05000 214.8777 4.319216 39.99767 59.99250
20.08334 215.2135 4.316833 39.99052 60.00211
20.11667 215.5450 4.313962 40.01778 59.99076
20.15000 215.8766 4.310850 39.99359 60.00344
20.18333 216.2109 4.308097 40.00294 60.01302
20.21667 216.5424 4.305186 39.99926 60.00117
20.25000 216.8742 4.302283 40.00711 59.98584
20.28333 217.2058 4.299288 39.99814 59.99380
20.31667 217.5372 4.296152 39.98495 60.00930
20.35000 217.8701 4.293172 39.99900 60.00373
20.38333 218.2110 4.291156 39.99767 59.99154
20.41666 218.5395 4.287754 39.99875 60.00644
20.45000 218.8670 4.283648 40.01080 59.98974
20.48334 219.2048 4.281311 39.99309 60.00456
20.51666 219.5418 4.278883 40.00150 60.00026
20.55000 219.8780 4.275717 39.99350 60.00330
20.58334 220.2159 4.273082 40.00461 60.01069
20.61667 220.5442 4.269256 39.99915 59.98290
20.65000 220.8761 4.265381 40.01076 60.01936
20.68333 221.2092 4.262414 40.00860 59.98315
20.71667 221.5418 4.258952 39.99984 60.01661
20.75000 221.8711 4.255275 39.99604 59.99370
20.78333 222.2020 4.251546 40.00519 59.98789
20.81667 222.5342 4.248126 39.98068 59.99801
20.85000 222.8669 4.244719 40.00844 60.01895
20.88333 223.1984 4.241213 40.00897 59.99382
20.91666 223.5281 4.237439 39.99160 59.99250
20.95000 223.8578 4.233444 40.00110 59.99502
20.98334 224.1930 4.230037 39.99682 60.00709
21.01666 224.5316 4.226926 40.00198 59.99195
21.05000 224.8718 4.224090 39.99546 60.01512
21.08334 225.2088 4.220430 40.01035 59.99311
21.11667 225.5436 4.216475 39.99617 60.01555
21.15000 225.8714 4.211777 40.00670 59.99600
21.18333 226.2020 4.207607 39.99324 60.00182
21.21667 226.5333 4.203680 39.99289 59.99316
21.25000 226.8684 4.199976 40.00052 59.99414
21.28333 227.2016 4.196262 40.00420 59.99840
21.31667 227.5354 4.192302 40.00784 60.00149
21.35000 227.8666 4.188064 39.98958 59.99952
21.38333 228.1986 4.183815 39.99722 59.99940
21.41666 228.5286 4.179420 39.99657 60.00354
21.45000 228.8616 4.175282 40.00674 59.99664
21.48334 229.1946 4.171207 39.99063 60.00118
21.51666 229.5276 4.167164 40.01502 60.00303
21.55000 229.8633 4.162988 40.00972 60.00406
21.58334 230.1978 4.158926 39.97683 59.99971
21.61667 230.5300 4.154340 40.01840 59.99487
21.65000 230.8614 4.149725 39.99370 60.00068
21.68333 231.1918 4.145144 40.01590 59.99956
21.71667 231.5273 4.140982 39.98310 59.99816
21.75000 231.8613 4.136774 40.00105 60.00410
21.78333 232.1966 4.132415 39.98841 60.00218
21.81667 232.5295 4.127781 40.02370 59.99518
21.85000 232.8644 4.123316 39.98813 59.99175
21.88333 233.1980 4.118668 39.99118 60.00591
21.91666 233.5290 4.113840 40.00153 60.00336
21.95000 233.8603 4.109024 40.00030 59.99870
21.98334 234.1936 4.104430 40.00217 60.00108
22.01666 234.5237 4.099404 39.99398 60.00284
22.05000 234.8565 4.094610 40.00602 59.99216
22.08334 235.1925 4.090283 40.00211 60.00534
22.11667 235.5250 4.085610 39.99496 60.00160
22.15000 235.8576 4.080387 40.00892 59.99668
22.18333 236.1939 4.075964 39.99802 59.99990
22.21667 236.5264 4.070857 40.00316 59.99490
22.25000 236.8572 4.065732 39.98648 60.00945
22.28333 237.1846 4.060199 40.01881 59.99668
22.31667 237.5202 4.055340 39.99174 60.00279
22.35000 237.8570 4.051200 40.00350 59.99550
22.38333 238.1863 4.045628 39.99256 60.01000
22.41666 238.5216 4.040591 39.99530 59.98965
22.45000 238.8581 4.035957 40.00780 60.00910
22.48334 239.1906 4.030626 39.99704 60.00191
22.51666 239.5213 4.025246 40.00276 59.99082
22.55000 239.8566 4.020092 39.98889 60.00200
22.58334 240.1887 4.015082 40.00224 59.99963
22.61667 240.5237 4.009796 40.01034 59.99817
22.65000 240.8570 4.004812 39.99760 59.99189
22.68333 241.1906 3.999362 39.99982 60.00766
22.71667 241.5239 3.994004 39.99990 59.99838
22.75000 241.8537 3.988483 40.00012 59.99724
22.78333 242.1833 3.982812 40.00019 60.00062
22.81667 242.5161 3.977648 40.00340 60.00591
22.85000 242.8487 3.972320 39.99142 59.99862
22.88333 243.1826 3.967040 39.99880 60.00112
22.91666 243.5150 3.961488 39.99974 60.00548
22.95000 243.8520 3.956600 40.00706 59.99666
22.98334 244.1828 3.950878 40.00035 59.99402
23.01666 244.5205 3.945793 39.99457 59.99500
23.05000 244.8538 3.940277 40.00783 60.01328
23.08334 245.1865 3.934692 39.99288 59.98803
23.11667 245.5202 3.929046 40.00504 59.99970
23.15000 245.8539 3.923775 40.00111 60.00601
23.18333 246.1869 3.917985 39.99722 59.99444
23.21667 246.5173 3.912312 40.00252 60.00880
23.25000 246.8501 3.906578 39.99100 60.00154
23.28333 247.1863 3.901474 40.00620 59.99484
23.31667 247.5187 3.895813 40.00000 59.99702
23.35000 247.8512 3.890066 40.00406 60.00238
23.38333 248.1850 3.884619 40.00440 60.00215
23.41666 248.5207 3.879294 39.98391 60.00710
23.45000 248.8526 3.873530 40.01263 59.98809
23.48334 249.1861 3.867994 39.99152 60.01526
23.51666 249.5176 3.862038 39.99582 59.99482
23.55000 249.8522 3.856637 40.01234 59.99160
23.58334 250.1840 3.850992 39.99668 60.00055
23.61667 250.5182 3.845506 40.00598 59.99482
23.65000 250.8518 3.839869 39.99328 60.00636
23.68333 251.1834 3.834083 39.98957 60.00322
23.71667 251.5163 3.828494 40.01646 60.00626
23.75000 251.8460 3.822600 39.98863 59.99132
23.78333 252.1790 3.816968 40.00852 59.99586
23.81667 252.5131 3.811488 39.99611 60.00797
23.85000 252.8462 3.806058 40.00896 59.99913
23.88333 253.1795 3.800316 39.98699 60.00545
23.91666 253.5147 3.794990 40.01012 59.98268
23.95000 253.8507 3.789608 40.00126 59.99966
23.98334 254.1846 3.784045 39.98290 60.01954
24.01666 254.5157 3.778174 40.01351 59.98504
24.05000 254.8468 3.772410 39.98883 60.01187
24.08334 255.1796 3.766824 39.99840 60.00239
24.11667 255.5162 3.761704 40.01532 59.97901
24.15000 255.8508 3.756412 39.99854 60.00162
24.18333 256.1854 3.750890 40.00288 59.99990
24.21667 256.5196 3.745356 39.99772 60.00524
24.25000 256.8534 3.739825 39.99996 59.99620
24.28333 257.1866 3.734415 39.99018 60.01074
24.31667 257.5175 3.728791 40.00994 59.99568
24.35000 257.8475 3.723031 39.99130 59.99908
24.38333 258.1803 3.717616 40.00325 60.00511
24.41666 258.5106 3.712070 39.99534 59.99856
24.45000 258.8404 3.706247 39.99649 60.01248
24.48334 259.1764 3.701354 39.99958 59.99560
24.51666 259.5122 3.696434 40.01279 59.99160
24.55000 259.8441 3.690714 40.00390 59.98945
24.58334 260.1800 3.685534 39.99805 60.00666
24.61667 260.5115 3.680230 39.98872 60.00113
24.65000 260.8422 3.674494 40.00396 59.99824
24.68333 261.1764 3.669477 39.99938 60.01026
24.71667 261.5108 3.664471 39.99963 60.00308
24.75000 261.8426 3.658988 40.00630 59.98590
24.78333 262.1796 3.654053 39.98761 60.00820
24.81667 262.5178 3.649561 39.99630 60.00130
24.85000 262.8470 3.643796 40.01019 59.99761
24.88333 263.1778 3.638176 40.00178 59.99129
24.91666 263.5102 3.633237 39.99494 60.00955
24.95000 263.8428 3.627930 40.00644 59.99626
24.98334 264.1810 3.623658 39.99985 59.99814
25.01666 264.5152 3.618640 39.99996 60.01110
25.05000 264.8456 3.613122 39.99416 59.99082
25.08334 265.1775 3.608146 40.01011 60.00035
25.11667 265.5039 3.602317 39.98761 59.99562
25.15000 265.8363 3.597525 40.01318 60.01296
25.18333 266.1730 3.592740 39.98663 59.99722
25.21667 266.5139 3.589016 40.00862 59.98986
25.25000 266.8454 3.583638 40.00024 59.99731
25.28333 267.1752 3.578076 40.00428 60.00258
25.31667 267.5074 3.573097 39.99858 60.00176
25.35000 267.8426 3.568462 40.00052 59.99950
25.38333 268.1807 3.564081 39.99548 60.01330
25.41666 268.5138 3.559122 39.99980 59.99200
25.45000 268.8464 3.554240 40.00350 59.99976
25.48334 269.1808 3.549128 39.99802 60.00566
25.51666 269.5095 3.544269 40.00329 59.99041
25.55000 269.8389 3.538887 40.00322 60.00234
25.58334 270.1712 3.534017 39.98516 60.00348
25.61666 270.5036 3.529456 40.00741 60.00235
25.65000 270.8401 3.524987 39.99430 59.99719
25.68333 271.1740 3.520135 40.02442 59.99758
25.71667 271.5129 3.516046 39.97290 60.00187
25.75000 271.8484 3.511307 40.00199 60.00066
25.78333 272.1795 3.506186 40.00918 59.99741
25.81667 272.5129 3.501341 40.00132 59.99558
25.85000 272.8426 3.496275 39.98898 60.02282
25.88334 273.1735 3.491428 40.00644 59.97603
25.91666 273.5066 3.486914 39.99605 60.00310
25.95000 273.8380 3.482156 40.00350 60.00508
25.98334 274.1690 3.477126 40.00381 59.99566
26.01666 274.5056 3.472783 39.99045 60.00126
26.05000 274.8418 3.468300 40.00449 59.99472
26.08334 275.1756 3.463682 40.00452 60.00476
26.11666 275.5056 3.458620 39.99268 59.99199
26.15000 275.8360 3.453610 40.00098 60.01132
26.18333 276.1710 3.449096 40.00332 60.00378
26.21667 276.5034 3.444590 40.00750 59.99534
26.25000 276.8369 3.439675 39.99123 59.99900
26.28333 277.1718 3.435196 40.00615 59.99488
26.31667 277.5053 3.430346 39.99276 60.00658
26.35000 277.8382 3.425557 40.00838 60.00455
26.38334 278.1738 3.420940 39.99930 59.98880
26.41666 278.5080 3.416469 39.98952 60.00547
26.45000 278.8410 3.411591 40.00406 59.99478
26.48334 279.1752 3.406898 40.00574 60.00740
26.51666 279.5069 3.402000 39.99771 59.98821
26.55000 279.8387 3.397138 39.99250 60.00886
26.58334 280.1712 3.392316 40.00697 60.00615
26.61666 280.5036 3.387459 39.99869 59.99365
26.65000 280.8363 3.382774 39.99772 60.00150
26.68333 281.1710 3.378144 39.99303 59.99816
26.71667 281.5027 3.373286 40.00870 60.00087
26.75000 281.8374 3.368591 40.00153 59.99224
26.78333 282.1714 3.363952 40.00090 60.00450
26.81667 282.5040 3.359107 39.99612 60.00789
26.85000 282.8386 3.354217 40.00596 59.99801
26.88334 283.1719 3.349538 40.00782 59.98669
26.91666 283.5031 3.344421 39.98372 60.00266
26.95000 283.8366 3.339603 40.01140 60.01318
26.98334 284.1746 3.335208 39.98437 59.99842
27.01666 284.5089 3.330510 40.01828 59.99993
27.05000 284.8430 3.325645 39.98725 60.00329
27.08334 285.1754 3.320570 39.99048 59.99348
27.11666 285.5072 3.315578 40.00008 60.01186
27.15000 285.8394 3.310568 40.01900 59.97970
27.18333 286.1730 3.305706 40.00046 60.00741
27.21667 286.5033 3.300694 39.98843 60.00470
27.25000 286.8373 3.295693 40.01092 59.99386
27.28333 287.1683 3.290586 39.98363 60.00622
27.31667 287.5033 3.285730 40.01004 59.98672
27.35000 287.8376 3.281018 39.99063 60.01021
27.38334 288.1709 3.275926 40.01450 59.99252
27.41666 288.5038 3.270942 39.98503 60.01551
27.45000 288.8366 3.265831 40.00734 59.98852
27.48334 289.1700 3.260662 40.00362 60.00760
27.51666 289.5057 3.255865 40.00730 59.99230
27.55000 289.8390 3.250839 40.01163 59.99540
27.58334 290.1713 3.245612 39.97120 60.00489
27.61666 290.5058 3.240476 40.01442 60.00052
27.65000 290.8363 3.235280 39.99701 60.00260
27.68333 291.1660 3.229656 39.99362 60.00772
27.71667 291.4992 3.224811 40.00740 59.98750
27.75000 291.8340 3.219810 40.00024 59.99482
27.78333 292.1664 3.214585 40.00187 60.00557
27.81667 292.5018 3.209390 40.00061 60.00191
27.85000 292.8372 3.204380 39.98749 59.99862
27.88334 293.1710 3.199060 40.00462 60.00512
27.91666 293.5118 3.194484 39.99336 59.99332
27.95000 293.8416 3.189006 40.00649 60.00700
27.98334 294.1706 3.182811 40.00346 60.00113
28.01666 294.5056 3.177885 40.00287 59.99492
28.05000 294.8297 3.171742 39.99176 60.00387
28.08334 295.1550 3.165531 40.00869 60.00279
28.11666 295.4918 3.160966 39.98820 59.99963
28.15000 295.8227 3.155476 39.99592 59.99658
28.18333 296.1590 3.150034 40.00836 59.98852
28.21667 296.4955 3.145036 40.00122 60.00042
28.25000 296.8346 3.139908 40.00268 60.01372
28.28333 297.1733 3.134770 40.00036 59.99344
28.31667 297.5092 3.129272 39.99870 59.99728
28.35000 297.8413 3.123184 40.01205 60.01266
28.38334 298.1764 3.117830 39.98758 59.98898
28.41666 298.5098 3.112106 39.99306 60.00360
28.45000 298.8413 3.106377 40.01133 60.00534
28.48334 299.1690 3.100182 39.98544 59.99798
28.51666 299.5008 3.094379 40.01120 60.00396
28.55000 299.8337 3.088860 40.00192 59.99293
28.58334 300.1616 3.082685 39.99211 59.99226
28.61666 300.4914 3.076536 40.00584 59.99878
28.65000 300.8330 3.071682 39.99989 60.00984
28.68333 301.1693 3.066333 39.99936 60.00391
28.71667 301.5028 3.060180 40.00415 59.99266
28.75000 301.8363 3.054232 39.99497 59.99828
28.78333 302.1675 3.048092 39.99518 59.99671
28.81667 302.5000 3.042094 40.00869 60.00051
28.85000 302.8330 3.036184 39.99962 59.99898
28.88334 303.1703 3.030515 40.00050 60.00274
28.91666 303.5039 3.024764 39.99416 60.00992
28.95000 303.8358 3.018171 39.99442 59.98622
28.98334 304.1712 3.012488 40.00272 60.02071
29.01666 304.5000 3.005981 40.01172 59.99090
29.05000 304.8340 2.999882 39.99532 59.99044
29.08334 305.1635 2.993400 39.99532 60.00044
29.11666 305.4978 2.987291 40.00136 60.00098
29.15000 305.8334 2.981420 40.00515 60.00865
29.18333 306.1684 2.975310 39.98777 59.99336
29.21667 306.5010 2.968842 40.01262 60.00024
29.25000 306.8316 2.962185 39.98996 59.99418
29.28333 307.1638 2.955814 40.00195 60.01188
29.31667 307.4963 2.949435 40.00955 59.98950
29.35000 307.8310 2.943057 39.99790 60.00510
29.38334 308.1660 2.936875 40.00358 59.99746
29.41666 308.5006 2.930476 39.99430 60.00171
29.45000 308.8356 2.924054 40.00318 60.00491
29.48334 309.1686 2.917420 39.98908 59.99984
29.51666 309.4994 2.910400 40.00485 59.99922
29.55000 309.8325 2.903638 39.99406 59.98968
29.58334 310.1650 2.897072 39.99882 60.00445
29.61666 310.4985 2.890284 40.00175 59.99787
29.65000 310.8310 2.883592 40.01693 60.00982
29.68333 311.1653 2.876994 39.98575 60.00068
29.71667 311.5008 2.870282 40.00714 59.98989
29.75000 311.8344 2.863554 39.98766 59.99907
29.78333 312.1650 2.856409 39.99668 60.00472
29.81667 312.4986 2.849485 40.01080 59.99911
29.85000 312.8309 2.842518 39.99094 60.00020
29.88334 313.1655 2.835676 40.00118 59.99615
29.91666 313.4984 2.828682 40.00078 60.00587
29.95000 313.8345 2.821792 39.99714 59.99457
29.98334 314.1662 2.814676 40.00542 60.00260
30.01666 314.4990 2.807424 39.99612 59.99402
30.05000 314.8334 2.800274 40.00891 60.02004
30.08334 315.1675 2.793330 40.00820 59.99260
30.11666 315.4996 2.786048 39.98703 59.98874
30.15000 315.8323 2.778626 39.99842 60.00365
30.18333 316.1644 2.771203 40.01594 60.01006
30.21667 316.4961 2.763865 40.01245 59.99206
30.25000 316.8284 2.756338 39.98735 60.00796
30.28333 317.1582 2.748713 39.98835 59.99156
30.31667 317.4907 2.741180 39.99622 59.99711
30.35000 317.8250 2.733833 40.00680 60.01236
30.38334 318.1583 2.726219 40.00222 59.99255
30.41666 318.4938 2.718840 40.00319 60.00820
30.45000 318.8278 2.711224 39.99058 59.98918
30.48334 319.1621 2.703622 40.00048 60.01280
30.51666 319.4963 2.695994 39.99437 59.99320
30.55000 319.8271 2.687967 40.01205 60.00276
30.58334 320.1626 2.680347 39.99267 59.99039
30.61666 320.4976 2.672748 40.00698 60.00812
30.65000 320.8318 2.665141 39.99538 59.99345
30.68333 321.1630 2.656916 40.00489 60.01371
30.71667 321.4969 2.649048 39.98656 59.98799
30.75000 321.8373 2.641757 40.00770 59.99620
30.78333 322.1662 2.633540 40.00825 60.01111
30.81667 322.4964 2.624960 39.98805 59.99213
30.85000 322.8262 2.616694 40.00760 59.99329
30.88334 323.1588 2.608621 39.99836 60.00576
30.91666 323.4926 2.600618 39.99593 60.01240
30.95000 323.8270 2.592566 40.00769 59.99060
30.98334 324.1624 2.584515 39.99270 59.99866
31.01666 324.4976 2.576377 40.01214 60.00292
31.05000 324.8322 2.568105 39.98904 59.99663
31.08334 325.1646 2.559684 40.00645 60.00938
31.11666 325.4986 2.551344 39.99112 60.00278
31.15000 325.8275 2.542682 40.00249 59.98304
31.18333 326.1580 2.533955 40.00508 60.01358
31.21667 326.4886 2.525452 39.99526 59.99504
31.25000 326.8211 2.517062 39.99854 59.99864
31.28333 327.1563 2.508868 40.01347 60.00486
31.31667 327.4935 2.500791 39.99008 59.98878
31.35000 327.8261 2.491867 40.00093 60.00176
31.38334 328.1590 2.483097 39.99760 60.00682
31.41666 328.4925 2.474488 39.99942 59.99530
31.45000 328.8272 2.466006 40.00468 60.00597
31.48334 329.1598 2.457240 39.99617 60.00281
31.51666 329.4912 2.448285 39.99554 59.98703
31.55000 329.8254 2.439721 40.00897 60.00904
31.58334 330.1605 2.431387 39.99402 59.99960
31.61666 330.4936 2.422617 40.00415 60.00050
31.65000 330.8271 2.413904 39.99091 59.99022
31.68333 331.1628 2.405273 40.01130 60.00551
31.71667 331.4970 2.396734 39.99050 60.01041
31.75000 331.8305 2.387841 40.00448 59.98426
31.78333 332.1610 2.379025 40.00033 59.99901
31.81667 332.4917 2.370066 39.99666 59.99551
31.85000 332.8246 2.361315 40.00153 60.01024
31.88334 333.1570 2.352769 40.00666 60.00891
31.91666 333.4895 2.343928 39.99502 59.98165
31.95000 333.8240 2.335457 39.99938 60.00454
31.98334 334.1594 2.327036 40.00684 60.00138
32.01666 334.4938 2.318460 40.00400 60.01057
32.05000 334.8280 2.310042 39.98542 59.99700
32.08333 335.1620 2.301534 39.99916 59.99420
32.11666 335.4970 2.293034 39.99540 59.99425
32.15000 335.8275 2.284294 40.00183 60.00135
32.18334 336.1609 2.275798 39.99984 59.99914
32.21667 336.4942 2.267666 40.02550 60.00809
32.25000 336.8233 2.259082 39.99328 60.00033
32.28333 337.1532 2.250516 40.00020 60.01089
32.31666 337.4891 2.242765 39.98736 59.98550
32.35000 337.8256 2.235247 40.02086 60.01494
32.38334 338.1586 2.227115 39.97798 59.99652
32.41667 338.4916 2.219129 40.00088 60.00160
32.45000 338.8266 2.211332 39.99959 59.99254
32.48334 339.1632 2.204020 39.99893 59.98900
32.51666 339.4989 2.196593 40.01195 60.01537
32.55000 339.8310 2.188912 39.98508 59.99562
32.58333 340.1590 2.180977 40.01991 60.00234
32.61666 340.4840 2.173042 39.97965 59.98492
32.65000 340.8150 2.165846 40.00590 60.00332
32.68334 341.1462 2.158919 39.99790 60.01250
32.71667 341.4804 2.152244 40.00355 59.98414
32.75000 341.8179 2.145696 40.00768 60.01377
32.78333 342.1568 2.139405 39.98624 59.99624
32.81666 342.4878 2.132698 40.01587 60.00419
32.85000 342.8217 2.125612 39.99700 59.99702
32.88334 343.1574 2.120108 40.00714 59.99722
32.91667 343.4840 2.112837 39.98083 60.00576
32.95000 343.8225 2.107476 39.99928 59.99060
32.98334 344.1600 2.102102 40.00400 60.01494
33.01666 344.4905 2.095962 40.01298 59.99134
33.05000 344.8205 2.089914 39.99426 60.00181
33.08333 345.1490 2.084086 39.99840 60.00608
33.11666 345.4792 2.078502 40.00152 59.99829
33.15000 345.8109 2.073234 40.01570 59.99550
33.18334 346.1470 2.068444 39.97618 60.00190
33.21667 346.4822 2.063787 40.00444 59.99385
33.25000 346.8079 2.057922 39.99834 60.00457
33.28333 347.1437 2.053052 40.01044 60.00118
33.31666 347.4856 2.049719 39.98680 59.99415
33.35000 347.8158 2.044563 40.00496 59.99950
33.38334 348.1511 2.040133 39.99272 60.00430
33.41667 348.4852 2.035934 40.00369 59.99870
33.45000 348.8167 2.031449 40.00726 59.99789
33.48334 349.1474 2.027136 39.99271 59.99736
33.51666 349.4844 2.023617 39.99965 59.99947
33.55000 349.8175 2.019959 40.00527 60.00846
33.58333 350.1513 2.015952 39.99333 59.99963
33.61666 350.4853 2.012167 40.01202 60.00150
33.65000 350.8191 2.008823 39.99055 59.99125
33.68334 351.1498 2.004975 40.00732 60.01270
33.71667 351.4828 2.001615 40.00015 59.99636
33.75000 351.8142 1.998081 39.98948 59.99090
33.78333 352.1476 1.994616 40.00888 60.01035
33.81666 352.4826 1.992096 39.99077 59.99790
33.85000 352.8194 1.988844 40.00630 60.00761
33.88334 353.1642 1.986933 40.00339 59.98293
33.91667 353.4962 1.983963 39.99680 60.00471
33.95000 353.8224 1.979956 39.99474 59.99762
33.98334 354.1544 1.977063 40.00776 60.00178
34.01666 354.4848 1.974187 39.99246 60.00375
34.05000 354.8181 1.971478 39.99575 59.99408
34.08333 355.1467 1.968621 40.00942 60.00070
34.11666 355.4814 1.965881 40.00300 59.99800
34.15000 355.8154 1.963516 39.99683 60.00824
34.18334 356.1515 1.961224 39.98996 59.98930
34.21667 356.4875 1.958970 40.01110 60.00118
34.25000 356.8235 1.956645 39.99118 60.00987
34.28333 357.1580 1.954240 40.00500 60.00229
34.31666 357.4980 1.952372 40.00865 59.99590
34.35000 357.8335 1.950112 39.99348 60.00036
34.38334 358.1628 1.947378 40.00084 59.99488
34.41667 358.4900 1.944156 40.00412 60.00507
34.45000 358.8236 1.942317 39.99500 60.00600
34.48334 359.1576 1.940356 39.99724 59.98937
34.51666 359.4874 1.937733 40.01520 60.00074
34.55000 359.8245 1.935827 39.98647 60.00940
34.58333 360.1618 1.934348 39.98965 59.99146
34.61666 360.4931 1.931852 40.01938 59.99104
34.65000 360.8269 1.929659 39.99644 60.00251
34.68334 361.1594 1.927535 39.99340 60.01193
34.71667 361.4938 1.925697 40.00469 59.99434
34.75000 361.8279 1.923657 40.00281 59.99484
34.78333 362.1640 1.922001 39.97900 60.00347
34.81666 362.4967 1.919864 40.01560 60.00778
34.85000 362.8307 1.917837 39.99835 59.98806
34.88334 363.1642 1.915970 40.01004 60.00020
34.91667 363.4964 1.913944 39.99309 60.00185
34.95000 363.8322 1.912350 39.99700 60.01528
34.98334 364.1672 1.910576 40.00942 59.99802
35.01666 364.5017 1.908688 39.99271 59.98348
35.05000 364.8342 1.906806 40.00160 60.01901
35.08333 365.1645 1.904696 40.00253 59.98555
35.11666 365.4966 1.902731 39.99927 60.00839
35.15000 365.8315 1.901143 39.99828 59.99826
35.18334 366.1631 1.899220 40.00454 60.00163
35.21667 366.4964 1.897492 39.98648 59.99302
35.25000 366.8328 1.895931 40.01406 59.99664
35.28333 367.1691 1.894420 39.99236 59.99668
35.31666 367.5036 1.892655 39.99808 60.01626
35.35000 367.8358 1.890729 40.00713 59.99534
35.38334 368.1677 1.888912 39.99297 59.99679
35.41667 368.5023 1.887222 39.99378 59.99926
35.45000 368.8345 1.885660 40.00261 60.00310
35.48334 369.1663 1.883766 40.00534 59.99968
35.51666 369.4968 1.881768 39.99700 59.99757
35.55000 369.8314 1.880165 40.01419 60.00200
35.58333 370.1663 1.878844 39.99424 59.99669
35.61666 370.5016 1.877212 39.99787 59.99836
35.65000 370.8388 1.875919 39.99468 60.00418
35.68334 371.1735 1.874294 40.00232 60.00084
35.71667 371.5059 1.872496 40.00016 60.00699
35.75000 371.8372 1.870403 39.99891 59.99070
35.78333 372.1702 1.868914 39.99746 60.00859
35.81666 372.5033 1.867378 40.00303 59.98254
35.85000 372.8355 1.865656 39.99463 60.01414
35.88334 373.1714 1.864287 40.00640 59.99216
35.91667 373.5046 1.862784 40.00394 60.00854
35.95000 373.8394 1.861262 39.99416 60.00208
35.98334 374.1706 1.859633 40.00370 59.99926
36.01666 374.5025 1.857818 39.99918 59.99818
36.05000 374.8369 1.856306 40.00194 59.99543
36.08333 375.1697 1.854860 39.99950 60.00586
36.11666 375.5030 1.853284 39.99417 59.99563
36.15000 375.8364 1.851819 39.99850 60.00570
36.18334 376.1716 1.850371 40.00742 59.99126
36.21667 376.5066 1.849169 39.99928 59.99665
36.25000 376.8392 1.847491 39.98960 60.00641
36.28333 377.1705 1.845681 40.00132 60.00338
36.31666 377.5014 1.843948 40.01167 59.99443
36.35000 377.8328 1.842323 39.99676 59.99780
36.38334 378.1648 1.840862 40.00402 60.00680
36.41667 378.4992 1.839392 39.99497 59.99561
36.45000 378.8424 1.838911 40.00150 60.00186
36.48334 379.1782 1.837637 40.00799 59.99664
36.51666 379.5094 1.835580 39.98497 60.01248
36.55000 379.8417 1.833963 40.00981 59.98130
36.58333 380.1734 1.832401 40.00798 59.99518
36.61666 380.5036 1.830680 39.97837 60.01692
36.65000 380.8344 1.829056 40.01789 59.99624
36.68334 381.1650 1.827482 39.99572 59.99209
36.71667 381.5012 1.826320 39.98695 60.00337
36.75000 381.8365 1.825090 40.01700 60.00204
36.78333 382.1738 1.823959 39.98201 60.00945
36.81666 382.5084 1.822501 40.01350 59.99012
36.85000 382.8418 1.820972 40.00625 59.98856
36.88334 383.1740 1.819251 39.98082 60.01701
36.91667 383.5100 1.818021 40.01236 59.99199
36.95000 383.8401 1.816220 39.99015 59.99996
36.98334 384.1717 1.814541 40.00439 60.00680
37.01666 384.5066 1.813541 40.00815 60.01088
37.05000 384.8413 1.812292 39.99870 59.99630
37.08333 385.1737 1.810643 40.00330 59.99418
37.11666 385.5066 1.809266 39.99525 59.99750
37.15000 385.8415 1.807995 40.00453 59.99913
37.18334 386.1750 1.806563 39.99950 59.99852
37.21667 386.5082 1.805074 39.98250 60.00750
37.25000 386.8420 1.803660 40.00730 59.99132
37.28333 387.1722 1.802085 39.99844 59.99794
37.31666 387.4996 1.800194 39.99929 60.01269
37.35000 387.8346 1.798844 40.00398 59.98870
37.38334 388.1682 1.797736 39.99682 60.00305
37.41667 388.5033 1.796313 40.00056 59.99727
37.45000 388.8375 1.795020 40.00511 60.00807
37.48334 389.1715 1.793655 39.99140 59.98468
37.51666 389.5055 1.792152 40.00476 60.01042
37.55000 389.8391 1.790667 40.00485 60.00772
37.58333 390.1719 1.789146 39.99652 60.00280
37.61666 390.5040 1.787559 39.99675 59.99351
37.65000 390.8389 1.786352 40.00582 60.00209
37.68334 391.1736 1.785054 40.00776 60.00250
37.71667 391.5078 1.783658 39.98376 59.98966
37.75000 391.8425 1.782311 40.01068 60.00082
37.78333 392.1778 1.780962 39.99773 60.00288
37.81666 392.5192 1.780326 40.00241 60.00396
37.85000 392.8536 1.779150 39.99847 60.00122
37.88334 393.1814 1.776774 39.99905 59.98783
37.91667 393.5109 1.775200 40.00590 60.01168
37.95000 393.8416 1.773484 39.98892 59.99672
37.98334 394.1744 1.772317 39.99854 59.99949
38.01666 394.5042 1.770624 40.01284 60.01135
38.05000 394.8380 1.769220 39.99132 59.99629
38.08333 395.1681 1.767637 39.99563 59.99016
38.11666 395.4983 1.765752 40.00155 60.00198
38.15000 395.8342 1.764626 40.00530 59.99758
38.18334 396.1725 1.763598 39.99340 60.00435
38.21667 396.5083 1.762231 40.00844 59.98933
38.25000 396.8416 1.760562 39.99625 59.99936
38.28333 397.1724 1.758828 39.99700 60.00574
38.31666 397.5032 1.756916 40.00175 60.01396
38.35000 397.8428 1.756194 39.99545 59.98629
38.38334 398.1789 1.755075 40.00998 60.00653
38.41667 398.5110 1.753208 39.99945 59.99340
38.45000 398.8460 1.751928 39.99494 59.99693
38.48334 399.1770 1.750130 40.00873 59.99836
38.51666 399.5098 1.748580 39.99748 60.00602
38.55000 399.8392 1.746917 40.00372 59.99752
38.58333 400.1736 1.745444 39.99933 60.00216
38.61666 400.5048 1.743832 39.98378 60.00469
38.65000 400.8350 1.741848 40.01295 59.98412
38.68334 401.1666 1.740237 40.00434 60.01257
38.71667 401.4966 1.738359 39.98552 60.00568
38.75000 401.8337 1.737173 39.99602 59.99724
38.78333 402.1735 1.736126 40.01230 59.98911
38.81666 402.5138 1.734990 39.98885 60.01680
38.85000 402.8507 1.733606 40.01574 59.98865
38.88334 403.1885 1.732107 39.98137 60.00813
38.91667 403.5210 1.730352 40.00882 60.00543
38.95000 403.8508 1.728268 39.99300 59.99792
38.98334 404.1801 1.726281 40.00671 59.99844
39.01666 404.5122 1.724735 40.01238 59.98485
39.05000 404.8420 1.723091 39.99709 59.99816
39.08333 405.1694 1.720703 39.98804 60.00907
39.11666 405.4970 1.718554 40.01397 59.98548
39.15000 405.8332 1.717402 39.98201 60.02070
39.18334 406.1691 1.715759 40.00875 60.00110
39.21667 406.5140 1.715237 40.00011 60.00164
39.25000 406.8466 1.713350 39.99838 59.98640
39.28333 407.1790 1.710841 39.99557 60.00215
39.31666 407.5110 1.708926 40.01144 60.00437
39.35000 407.8412 1.707022 39.99405 59.98640
39.38334 408.1722 1.705010 39.99912 60.01729
39.41667 408.5066 1.703275 40.00644 59.99965
39.45000 408.8451 1.702214 39.99994 59.99444
39.48334 409.1800 1.700491 39.98927 60.00808
39.51666 409.5152 1.698695 39.99983 59.99099
39.55000 409.8486 1.696683 40.01219 59.99618
39.58333 410.1832 1.694822 39.99076 60.00182
39.61666 410.5246 1.693729 39.99989 60.00161
39.65000 410.8619 1.692311 40.00556 60.00454
39.68334 411.1918 1.689743 39.99500 59.99804
39.71667 411.5176 1.687146 40.00487 60.00012
39.75000 411.8445 1.684714 40.00215 59.99186
39.78333 412.1727 1.682482 39.99617 59.99828
39.81666 412.5035 1.680463 40.00447 60.00870
39.85000 412.8375 1.678694 39.99141 60.00874
39.88334 413.1744 1.677170 40.00556 59.98896
39.91667 413.5120 1.675341 39.99784 59.99874
39.95000 413.8480 1.673338 40.00578 60.00572
39.98334 414.1772 1.670654 39.99922 59.99834
40.01666 414.5070 1.667921 39.99090 60.00429
40.05000 414.8496 1.666563 40.00732 59.98824
40.08333 415.1926 1.665808 39.99268 60.01539
40.11666 415.5317 1.663584 40.00456 59.99137
40.15000 415.8686 1.661622 39.99714 60.00308
40.18334 416.2018 1.659330 40.00897 60.00160
40.21667 416.5270 1.656444 39.99717 60.00269
40.25000 416.8508 1.653231 39.98981 59.98719
40.28333 417.1826 1.651203 40.00042 59.99800
40.31666 417.5186 1.649540 40.00662 60.01661
40.35000 417.8512 1.647323 39.99446 59.99120
40.38334 418.1840 1.644642 40.00822 59.99285
40.41667 418.5133 1.641875 39.98956 60.00650
40.45000 418.8456 1.639244 40.01232 60.00516
40.48334 419.1796 1.636936 40.00450 59.99678
40.51666 419.5105 1.634141 39.98648 59.99008
40.55000 419.8444 1.631504 40.00015 59.99606
40.58333 420.1808 1.629116 39.99880 60.01218
40.61666 420.5182 1.626736 40.01097 60.00586
40.65000 420.8519 1.624128 39.99847 59.99138
40.68334 421.1902 1.621658 39.98226 59.99096
40.71667 421.5250 1.618894 40.00853 60.01057
40.75000 421.8570 1.615924 40.00655 60.00910
40.78333 422.1932 1.613237 40.00360 59.99747
40.81666 422.5376 1.611316 40.00458 59.98474
40.85000 422.8796 1.609313 39.98135 60.00871
40.88334 423.2096 1.605522 40.01094 59.98945
40.91667 423.5403 1.602304 39.99929 60.00768
40.95000 423.8653 1.598593 39.98820 60.00279
40.98334 424.1870 1.594519 40.00910 59.99051
41.01666 424.5150 1.590852 40.00066 60.00682
41.05000 424.8526 1.588569 40.00295 59.99620
41.08333 425.1897 1.585590 39.99668 60.00818
41.11666 425.5291 1.582706 40.00210 60.00510
41.15000 425.8654 1.579232 39.99506 59.98843
41.18334 426.2037 1.575786 39.99947 60.01057
41.21667 426.5390 1.572271 39.99348 60.00046
41.25000 426.8723 1.568637 40.00625 59.99332
41.28333 427.2004 1.564416 40.00359 60.00238
41.31666 427.5354 1.560809 40.00682 60.00158
41.35000 427.8709 1.557330 39.98878 59.99738
41.38334 428.2058 1.553491 40.01058 59.99744
41.41667 428.5400 1.549556 39.99988 60.00794
41.45000 428.8700 1.544998 39.99242 59.99586
41.48334 429.2020 1.540943 40.00811 60.00419
41.51666 429.5340 1.536583 39.98762 59.99042
41.55000 429.8660 1.532297 40.00836 60.00828
41.58333 430.2041 1.528391 39.99079 59.99510
41.61666 430.5411 1.524363 40.00100 60.00300
41.65000 430.8803 1.520324 40.01160 60.00340
41.68334 431.2146 1.515849 40.00175 60.00018
41.71667 431.5410 1.510334 39.99280 59.98907
41.75000 431.8738 1.505505 39.99725 60.00248
41.78333 432.2086 1.501084 40.00766 60.00671
41.81666 432.5416 1.496440 40.00098 59.99490
41.85000 432.8713 1.491200 39.99922 60.00015
41.88334 433.2037 1.486147 39.99206 59.99912
41.91667 433.5412 1.481686 40.00891 60.00894
41.95000 433.8780 1.476871 39.99697 59.99756
41.98334 434.2109 1.471610 39.99567 59.98943
42.01666 434.5428 1.466059 40.00336 60.00597
42.05000 434.8734 1.460594 39.99091 59.99275
42.08333 435.2080 1.455294 40.01418 60.01320
42.11666 435.5406 1.450005 39.99766 59.99623
42.15000 435.8743 1.444476 39.99689 59.99873
42.18334 436.2100 1.439165 40.00329 60.00498
42.21667 436.5418 1.433392 40.01330 59.99913
42.25000 436.8776 1.427982 39.98610 59.99932
42.28333 437.2154 1.422716 39.99570 59.98868
42.31666 437.5522 1.417340 39.99962 60.00786
42.35000 437.8840 1.411275 40.00197 59.99639
42.38334 438.2140 1.404874 40.00400 60.00908
42.41667 438.5458 1.398788 39.99776 59.99809
42.45000 438.8753 1.392612 39.99280 59.98982
42.48334 439.2048 1.386334 40.00376 60.00848
42.51666 439.5358 1.380116 39.99614 59.99975
42.55000 439.8680 1.373909 39.99945 59.99214
42.58333 440.2024 1.367748 39.99884 59.99668
42.61666 440.5376 1.361572 40.01650 60.02029
42.65000 440.8676 1.354650 40.00090 59.99846
42.68334 441.2026 1.348037 39.99200 59.99043
42.71667 441.5395 1.341912 39.99690 59.99390
42.75000 441.8775 1.335574 40.00652 59.99875
42.78333 442.2166 1.329525 39.99063 60.00604
42.81666 442.5509 1.322714 40.01264 60.00321
42.85000 442.8828 1.315574 39.99852 60.00265
42.88334 443.2178 1.308952 39.98420 59.98437
42.91667 443.5520 1.302407 40.01045 60.00761
42.95000 443.8837 1.293257 39.99480 60.00360
42.98334 444.2129 1.285278 40.00069 60.00186
43.01666 444.5441 1.278330 39.99667 60.00410
43.05000 444.8738 1.270915 40.00144 60.00684
43.08333 445.2033 1.263383 39.99564 59.98904
43.11666 445.5366 1.256118 40.01742 60.00990
43.15000 445.8690 1.248742 40.00986 59.98968
43.18334 446.1994 1.240702 39.98000 59.98900
43.21667 446.5347 1.232970 39.99627 60.00070
43.25000 446.8737 1.225785 40.01104 60.00822
43.28333 447.2128 1.218384 40.00294 59.99830
43.31666 447.5464 1.210140 39.99682 60.00208
43.35000 447.8798 1.202074 39.99768 60.00848
43.38334 448.2166 1.194174 39.99111 59.99407
43.41667 448.5522 1.186578 39.99826 59.99912
43.45000 448.8854 1.178318 39.99938 59.99762
43.48334 449.2172 1.170080 40.01514 59.99797
43.51666 449.5474 1.161617 39.98956 59.99326
43.55000 449.8812 1.153709 40.01963 60.01108
43.58333 450.2122 1.145366 39.98112 59.99863
43.61666 450.5445 1.137028 40.00612 59.99639
43.65000 450.8756 1.128624 39.99530 60.00605
43.68334 451.2078 1.120171 40.00418 60.00395
43.71667 451.5378 1.111443 39.99472 60.00322
43.75000 451.8700 1.102654 39.99494 59.98406
43.78333 452.2039 1.094301 40.00790 60.01320
43.81666 452.5391 1.085842 39.99695 59.99208
43.85000 452.8761 1.077359 39.99970 59.99378
43.88334 453.2120 1.068848 39.99905 60.01752
43.91667 453.5457 1.059897 40.00876 59.98342
43.95000 453.8783 1.050910 39.99284 60.00092
43.98334 454.2113 1.041977 40.00555 60.00538
44.01666 454.5430 1.032951 39.99548 59.99753
44.05000 454.8798 1.024269 40.00424 60.00274
44.08333 455.2146 1.015362 39.98858 59.99794
44.11666 455.5471 1.005986 40.00132 59.99746
44.15000 455.8800 0.9966098 39.99984 60.00470
44.18334 456.2133 0.9873672 40.00182 60.00166
44.21667 456.5455 0.9775806 40.00704 59.98682
44.25000 456.8778 0.9679778 39.99947 60.01047
44.28333 457.2120 0.9585012 40.00036 60.00437
44.31666 457.5454 0.9490089 39.98982 59.99355
44.35000 457.8762 0.9394322 40.02545 60.00989
44.38334 458.2058 0.9298101 39.98696 59.99370
44.41667 458.5356 0.9204161 39.99820 59.99860
44.45000 458.8640 0.9110901 40.00118 60.00486
44.48334 459.1919 0.9017579 39.99278 59.98970
44.51666 459.5224 0.8928426 39.99741 60.01642
44.55000 459.8553 0.8841203 40.00844 59.97974
44.58333 460.1852 0.8752524 39.99522 60.01492
44.61666 460.5182 0.8667132 40.00350 59.99706
44.65000 460.8494 0.8578953 39.99967 59.99444
44.68334 461.1830 0.8493103 39.99728 60.00672
44.71667 461.5179 0.8409269 39.99235 59.99312
44.75000 461.8510 0.8323799 40.00334 59.99637
44.78333 462.1838 0.8238663 40.00820 59.99485
44.81666 462.5196 0.8155518 39.99773 60.00899
44.85000 462.8533 0.8071438 40.00706 60.00590
44.88334 463.1879 0.7988575 39.98984 59.98195
44.91667 463.5197 0.7902603 39.99948 60.01030
44.95000 463.8538 0.7819065 40.00339 59.99627
44.98334 464.1848 0.7735662 40.00030 60.00286
45.01666 464.5176 0.7652966 40.02012 60.00218
45.05000 464.8503 0.7570955 39.99004 60.01191
45.08333 465.1812 0.7485530 39.97815 59.99195
45.11666 465.5139 0.7401774 40.00458 60.00722
45.15000 465.8458 0.7320989 40.00058 59.98916
45.18334 466.1804 0.7241264 40.01502 60.00422
45.21667 466.5150 0.7162329 39.99072 60.00268
45.25000 466.8486 0.7082325 40.01123 59.99280
45.28333 467.1848 0.7004081 39.98502 60.00215
45.31666 467.5225 0.6930420 40.00402 60.00630
45.35000 467.8574 0.6853275 39.98970 60.00211
45.38334 468.1908 0.6775024 40.00986 59.98482
45.41667 468.5230 0.6696960 39.99728 60.01008
45.45000 468.8511 0.6614502 40.00246 60.00547
45.48334 469.1801 0.6535623 40.00530 59.99690
45.51666 469.5101 0.6459536 39.98798 59.99452
45.55000 469.8418 0.6383651 40.00549 60.00024
45.58333 470.1742 0.6310380 40.00878 60.00370
45.61666 470.5112 0.6239592 39.98981 60.00800
45.65000 470.8481 0.6169841 40.00104 59.99118
45.68334 471.1822 0.6097368 40.00300 59.98865
45.71667 471.5170 0.6026459 39.99453 60.01334
45.75000 471.8512 0.5956754 40.00523 59.99550
45.78333 472.1826 0.5885993 40.00361 60.00520
45.81666 472.5135 0.5813931 39.99306 59.99898
45.85000 472.8461 0.5744593 39.99765 59.99594
45.88334 473.1812 0.5678738 40.00728 59.99805
45.91667 473.5163 0.5614518 40.00668 59.99895
45.95000 473.8498 0.5546426 39.99979 60.00112
45.98334 474.1834 0.5479882 39.99557 60.00551
46.01666 474.5170 0.5414172 40.00397 59.99226
46.05000 474.8512 0.5349847 39.98770 60.00284
46.08333 475.1826 0.5283594 40.00237 60.00028
46.11666 475.5180 0.5219944 39.99402 59.99915
46.15000 475.8496 0.5155674 40.00724 60.00900
46.18334 476.1810 0.5090227 39.99767 59.98925
46.21667 476.5126 0.5025882 40.00044 60.00723
46.25000 476.8466 0.4965040 39.99760 60.00566
46.28333 477.1807 0.4905183 40.00159 59.99484
46.31666 477.5174 0.4847338 40.00891 59.99500
46.35000 477.8528 0.4790047 40.00652 60.00388
46.38334 478.1856 0.4731164 39.99062 59.99644
46.41667 478.5164 0.4669654 39.99977 60.00180
46.45000 478.8459 0.4608040 40.00289 59.99774
46.48334 479.1776 0.4550504 39.99870 60.00250
46.51666 479.5137 0.4499494 40.00012 59.99330
46.55000 479.8479 0.4444978 39.99324 59.99988
46.58333 480.1843 0.4391084 40.00750 59.99390
46.61666 480.5172 0.4340202 39.99852 60.00715
46.65000 480.8521 0.4284790 39.98967 60.00981
46.68334 481.1896 0.4235764 39.99926 59.99876
46.71667 481.5246 0.4184338 40.01056 60.00036
46.75000 481.8576 0.4131431 39.99193 59.99546
46.78333 482.1900 0.4081638 40.00780 59.99718
46.81666 482.5225 0.4029243 39.99814 60.01106
46.85000 482.8545 0.3982160 39.99220 59.99766
46.88334 483.1810 0.3922842 40.00406 60.00102
46.91667 483.5203 0.3882958 39.99360 60.00020
46.95000 483.8516 0.3835480 40.01767 59.99321
46.98334 484.1872 0.3788378 39.99441 59.99844
47.01666 484.5232 0.3744092 40.00864 60.00206
47.05000 484.8553 0.3698230 39.98703 60.00682
47.08333 485.1924 0.3655226 40.00580 59.99744
47.11666 485.5257 0.3611945 39.99058 60.00030
47.15000 485.8556 0.3564086 40.00286 59.99050
47.18334 486.1860 0.3517198 39.99287 60.01556
47.21667 486.5213 0.3478310 40.00503 59.99503
47.25000 486.8562 0.3436852 40.01531 59.98188
47.28333 487.1925 0.3398792 39.98132 60.01213
47.31666 487.5270 0.3358148 40.01521 59.99124
47.35000 487.8631 0.3319366 39.98306 60.01179
47.38334 488.1971 0.3282028 40.02206 59.99034
47.41667 488.5332 0.3243845 39.99840 59.99754
47.45000 488.8656 0.3206710 40.00023 60.00037
47.48334 489.1938 0.3162796 39.99180 60.00014
47.51666 489.5274 0.3125900 40.00149 60.01429
47.55000 489.8620 0.3092898 39.99997 59.99375
47.58333 490.1972 0.3058078 40.00664 59.99916
47.61666 490.5324 0.3023578 39.98378 60.01074
47.65000 490.8668 0.2990748 40.00150 59.99750
47.68334 491.2016 0.2957260 40.01421 59.98344
47.71667 491.5348 0.2922609 39.99420 60.00470
47.75000 491.8672 0.2886609 39.99100 60.00379
47.78333 492.2000 0.2853450 40.00634 60.00089
47.81666 492.5324 0.2821760 40.00356 59.99778
47.85000 492.8668 0.2791417 39.99537 60.00970
47.88334 493.2010 0.2760972 39.99773 59.99852
47.91667 493.5358 0.2730146 39.99103 60.00384
47.95000 493.8692 0.2699959 40.01298 59.98912
47.98334 494.2008 0.2668102 39.99236 60.00338
48.01666 494.5348 0.2638868 40.00553 59.99885
48.05000 494.8702 0.2613329 39.99544 60.00288
48.08333 495.2024 0.2583318 40.00180 59.99536
48.11666 495.5408 0.2559633 39.99890 59.99556
48.15000 495.8744 0.2532776 40.00525 59.99964
48.18334 496.2060 0.2502246 40.00546 60.00152
48.21667 496.5429 0.2479732 40.00390 60.00181
48.25000 496.8766 0.2454004 39.98767 60.00439
48.28333 497.2134 0.2431465 39.99919 59.99918
48.31666 497.5457 0.2405163 40.00198 60.00063
48.35000 497.8752 0.2377730 39.99739 60.00535
48.38334 498.2074 0.2352525 40.00710 59.99390
48.41667 498.5398 0.2330734 40.00326 60.00049
48.45000 498.8728 0.2306725 39.99120 60.00937
48.48334 499.2054 0.2284840 40.00104 59.98386
48.51666 499.5418 0.2263968 39.99797 60.01730
48.55000 499.8828 0.2249396 40.00132 59.98108
48.58333 500.2164 0.2228383 39.99805 60.01021
48.61666 500.5508 0.2205222 40.00515 59.99574
48.65000 500.8838 0.2186150 39.99219 59.99970
48.68334 501.2153 0.2163758 39.99678 60.00412
48.71667 501.5512 0.2148292 40.00167 60.00250
48.75000 501.8810 0.2128080 40.00289 60.00006
48.78333 502.2096 0.2104851 40.00003 59.99776
48.81666 502.5436 0.2086939 40.01119 59.98734
48.85000 502.8784 0.2070204 39.98792 60.00762
48.88334 503.2108 0.2049600 40.01530 59.99974
48.91667 503.5463 0.2034322 39.98742 60.00828
48.95000 503.8800 0.2019752 40.00656 59.98848
48.98334 504.2163 0.2005196 39.99845 60.01122
49.01666 504.5500 0.1988342 40.00566 59.99746
49.05000 504.8846 0.1972146 40.00126 59.99378
49.08333 505.2193 0.1959721 39.99112 59.99518
49.11666 505.5523 0.1944152 40.00080 60.01437
49.15000 505.8846 0.1930103 40.00158 59.99004
49.18334 506.2153 0.1913829 39.99983 60.01558
49.21667 506.5467 0.1898140 39.99119 59.98220
49.25000 506.8841 0.1887533 40.00303 60.00250
49.28333 507.2241 0.1883321 40.00273 60.00087
49.31666 507.5600 0.1871994 39.99463 59.99418
49.35000 507.8930 0.1859264 40.00125 60.00292
49.38334 508.2270 0.1847308 39.99973 60.00147
49.41667 508.5566 0.1834286 40.00531 59.99738
49.45000 508.8863 0.1820092 40.00138 60.00816
49.48334 509.2182 0.1809072 40.00633 59.99707
49.51666 509.5528 0.1802179 39.98910 59.99940
49.55000 509.8904 0.1795994 40.00524 60.00844
49.58333 510.2230 0.1784877 39.99425 59.98437
49.61666 510.5587 0.1777079 40.01089 59.99854
49.65000 510.8920 0.1767875 39.98657 60.00658
49.68334 511.2252 0.1759420 40.00400 60.00396
49.71667 511.5606 0.1754307 40.01079 59.99500
49.75000 511.8934 0.1745731 40.00105 60.00145
49.78333 512.2287 0.1742081 39.98989 60.01801
49.81666 512.5613 0.1734191 39.99740 59.98130
49.85000 512.8966 0.1726649 39.98920 60.01578
49.88334 513.2292 0.1718181 40.00200 59.99262
49.91667 513.5615 0.1710222 40.00581 59.98004
49.95000 513.8960 0.1709697 40.01486 60.01580
49.98334 514.2287 0.1703280 39.98168 60.00550
50.01666 514.5614 0.1695087 40.00710 59.99769
50.05000 514.8955 0.1692720 39.99463 60.00344
50.08333 515.2294 0.1688963 39.99163 60.00305
50.11666 515.5619 0.1682114 40.01384 59.97620
50.15000 515.8938 0.1677091 39.99774 60.01164
50.18334 516.2304 0.1677136 40.01100 59.99319
50.21667 516.5660 0.1676315 40.00178 60.01502
50.25000 516.9013 0.1674012 39.98600 59.99288
50.28333 517.2361 0.1671689 40.01216 59.99824
50.31666 517.5699 0.1669668 40.00068 60.00004
50.35000 517.9022 0.1666186 39.98974 60.00488
50.38334 518.2378 0.1666270 40.00778 59.99530
50.41667 518.5718 0.1664565 39.99994 60.00108
50.45000 518.9065 0.1662647 40.00018 60.00952
50.48334 519.2396 0.1661002 39.98537 59.98779
50.51666 519.5740 0.1660452 40.00264 60.01378
50.55000 519.9072 0.1659170 40.01352 59.99353
50.58333 520.2383 0.1656893 39.99402 59.98784
50.61666 520.5664 0.1648110 40.00569 60.01309
50.65000 520.9000 0.1646675 39.99636 59.99006
50.68334 521.2340 0.1647633 39.99683 59.99868
50.71667 521.5686 0.1647618 40.00210 59.99988
50.75000 521.9034 0.1644418 39.99443 60.00864
50.78333 522.2414 0.1647074 40.00632 59.99672
50.81666 522.5772 0.1648276 39.99626 60.00537
50.85000 522.9126 0.1647424 40.00153 59.99541
50.88334 523.2459 0.1644770 40.01188 59.99539
50.91667 523.5802 0.1644888 39.98358 60.00579
50.95000 523.9131 0.1644450 40.00906 59.99832
50.98334 524.2434 0.1640075 39.99222 60.00191
51.01666 524.5756 0.1638924 40.00262 59.99424
51.05000 524.9100 0.1638446 39.99550 60.01260
51.08333 525.2442 0.1639868 40.00900 59.99839
51.11666 525.5777 0.1638450 39.99091 60.00202
51.15000 525.9116 0.1636392 40.00783 59.99804
51.18334 526.2454 0.1635849 39.99431 59.99863
51.21667 526.5790 0.1633102 40.00582 59.99186
51.25000 526.9124 0.1633663 39.99951 60.00518
51.28333 527.2431 0.1630417 39.99128 59.99955
51.31666 527.5766 0.1626752 40.01013 59.99842
51.35000 527.9160 0.1632376 39.99640 60.00121
51.38334 528.2529 0.1635392 40.00108 59.99430
51.41667 528.5860 0.1632295 39.99507 60.00235
51.45000 528.9172 0.1627027 40.00844 60.00260
51.48333 529.2476 0.1623279 39.99766 59.99526
51.51667 529.5824 0.1623329 40.00222 60.00455
51.55000 529.9166 0.1627600 39.99555 60.00502
51.58333 530.2484 0.1620580 40.00039 59.99850
51.61666 530.5836 0.1622078 40.00050 59.99474
51.65000 530.9184 0.1622106 39.98662 60.00288
51.68334 531.2500 0.1616966 40.02528 60.00466
51.71667 531.5852 0.1617584 39.99030 59.99258
51.75000 531.9208 0.1619974 40.00368 59.99853
51.78333 532.2566 0.1619380 39.98865 60.00532
51.81666 532.5906 0.1618994 40.00993 59.99374
51.85000 532.9239 0.1618510 39.99024 60.00754
51.88334 533.2549 0.1613181 39.99360 59.99266
51.91667 533.5865 0.1611699 40.00852 60.00430
51.95000 533.9190 0.1611061 39.99574 59.99716
51.98333 534.2519 0.1608840 40.00360 59.99814
52.01667 534.5880 0.1609764 39.99824 60.01016
52.05000 534.9216 0.1609350 40.01416 59.98896
52.08333 535.2550 0.1605878 39.99465 60.00568
52.11666 535.5918 0.1610687 39.99841 60.00500
52.15000 535.9236 0.1606774 39.99087 59.99563
52.18334 536.2568 0.1605493 40.00691 60.00412
52.21667 536.5899 0.1603839 39.99273 60.00262
52.25000 536.9226 0.1603183 39.98614 59.98632
52.28333 537.2566 0.1602019 40.02996 60.01176
52.31666 537.5894 0.1601010 39.99062 60.01090
52.35000 537.9226 0.1599964 39.99663 59.98615
52.38334 538.2551 0.1598686 40.00920 59.99275
52.41667 538.5894 0.1597028 39.99063 59.99250
52.45000 538.9224 0.1594438 39.99368 60.01910
52.48332 539.2580 0.1594384 40.01498 60.00074
52.51668 539.5920 0.1592702 39.99722 60.00060
52.55000 539.9259 0.1592991 39.98970 59.99912
52.58332 540.2588 0.1591703 40.01624 59.99916
52.61666 540.5938 0.1592528 39.99882 60.00160
52.65000 540.9265 0.1590130 39.98024 59.98356
52.68334 541.2586 0.1585111 40.01926 60.00854
52.71668 541.5888 0.1582663 39.98334 60.01104
52.75000 541.9228 0.1580711 40.01854 59.99034
52.78332 542.2566 0.1580917 40.00021 60.00357
52.81666 542.5928 0.1583655 39.98432 59.98828
52.85000 542.9286 0.1582990 40.01345 60.01074
52.88334 543.2630 0.1582852 39.99126 59.99937
52.91668 543.5970 0.1580912 39.99618 59.99837
52.95000 543.9285 0.1576450 40.00727 60.00347
52.98332 544.2598 0.1571839 39.99575 59.98988
53.01668 544.5902 0.1567590 40.00932 60.01396
53.05000 544.9239 0.1566467 39.99214 59.98132
53.08332 545.2537 0.1561117 40.00604 60.00739
53.11666 545.5858 0.1554254 39.99556 60.02166
53.15000 545.9263 0.1562408 40.00616 59.98564
53.18334 546.2670 0.1568001 39.99250 59.99788
53.21668 546.6003 0.1563634 39.99904 59.99615
53.25000 546.9378 0.1566243 39.99492 59.99446
53.28332 547.2664 0.1561335 40.00385 60.00520
53.31666 547.5955 0.1555051 40.00518 60.00708
53.35000 547.9235 0.1549565 40.00362 60.00227
53.38334 548.2535 0.1543566 39.99509 59.98704
53.41668 548.5880 0.1545957 40.00685 60.00834
53.45000 548.9224 0.1543983 39.99232 59.99278
53.48332 549.2594 0.1545384 40.00193 60.01189
53.51668 549.5945 0.1543983 39.99231 59.98564
53.55000 549.9302 0.1544688 40.00384 60.00110
53.58332 550.2650 0.1544029 40.00586 60.00943
53.61666 550.5984 0.1540529 40.00205 60.00108
53.65000 550.9307 0.1537085 39.99331 59.99870
53.68334 551.2663 0.1539547 40.00919 60.00030
53.71668 551.5980 0.1537503 39.99608 59.98660
53.75000 551.9296 0.1533152 40.00217 60.01281
53.78332 552.2634 0.1532578 39.99124 59.99296
53.81666 552.5948 0.1530764 39.99889 60.00891
53.85000 552.9265 0.1525274 39.99886 60.00182
53.88334 553.2597 0.1523900 39.99700 59.99194
53.91668 553.5932 0.1523131 40.00662 59.99508
53.95000 553.9281 0.1520626 40.00088 60.00703
53.98332 554.2626 0.1519238 39.99424 60.00027
54.01668 554.5952 0.1516439 39.99896 60.00204
54.05000 554.9296 0.1514528 40.00265 59.99526
54.08332 555.2642 0.1514548 40.00660 59.99179
54.11666 555.5984 0.1512499 39.99470 60.00866
54.15000 555.9332 0.1510883 39.99921 60.00262
54.18334 556.2674 0.1508284 40.00918 59.99795
54.21668 556.6000 0.1504854 40.00032 60.00084
54.25000 556.9340 0.1503159 39.98897 59.99443
54.28332 557.2691 0.1503649 40.00744 60.00922
54.31666 557.6021 0.1499944 39.99364 59.99087
54.35000 557.9365 0.1499592 40.00600 60.00028
54.38334 558.2720 0.1499596 39.99742 60.00537
54.41668 558.6034 0.1493697 39.99242 59.99280
54.45000 558.9350 0.1490517 40.01068 60.01171
54.48332 559.2676 0.1488396 40.00191 59.99769
54.51668 559.6006 0.1486020 39.98780 59.99164
54.55000 559.9340 0.1482742 40.01233 60.00144
54.58332 560.2678 0.1479130 39.99594 59.99548
54.61666 560.6016 0.1476218 40.00210 60.00349
54.65000 560.9353 0.1473384 39.99836 59.99558
54.68334 561.2698 0.1470073 39.99020 60.00440
54.71668 561.6035 0.1466727 40.00770 60.00278
54.75000 561.9360 0.1461803 40.00570 60.00117
54.78332 562.2705 0.1460810 39.99902 60.00463
54.81666 562.6065 0.1460148 39.99040 59.99300
54.85000 562.9409 0.1458342 40.00120 59.99941
54.88334 563.2738 0.1452892 40.01230 60.01020
54.91668 563.6044 0.1445790 39.98850 59.99895
54.95000 563.9366 0.1442513 39.99908 59.98504
54.98332 564.2699 0.1438480 40.01437 60.01470
55.01668 564.6044 0.1435036 39.98639 59.98560
55.05000 564.9426 0.1434002 40.01273 60.01425
55.08332 565.2789 0.1434880 39.97820 59.98756
55.11666 565.6142 0.1431348 40.00742 59.99800
55.15000 565.9468 0.1425824 40.00528 60.00608
55.18334 566.2766 0.1418156 39.98776 59.99805
55.21668 566.6078 0.1410992 40.00725 60.00257
55.25000 566.9424 0.1412660 40.01348 59.99975
55.28332 567.2766 0.1409671 39.98955 60.00438
55.31666 567.6110 0.1405643 39.99518 59.99688
55.35000 567.9436 0.1402070 40.01619 60.00774
55.38334 568.2748 0.1397496 39.99340 60.00122
55.41668 568.6016 0.1385656 39.99126 59.99180
55.45000 568.9355 0.1382377 40.00462 59.99663
55.48332 569.2710 0.1381959 39.99700 60.00115
55.51668 569.6050 0.1379111 40.00586 60.00840
55.55000 569.9408 0.1377019 40.00628 59.99332
55.58332 570.2720 0.1372888 39.99900 59.99710
55.61666 570.6055 0.1363966 39.99192 60.00406
55.65000 570.9472 0.1376122 40.00378 59.99966
55.68334 571.2782 0.1369438 39.99407 60.00158
55.71668 571.6082 0.1360095 40.00491 60.00130
55.75000 571.9441 0.1361984 40.00310 59.98969
55.78332 572.2778 0.1361299 39.98826 60.00842
55.81666 572.6129 0.1360554 40.01242 60.00186
55.85000 572.9455 0.1358678 39.98757 60.00424
55.88334 573.2750 0.1352862 40.00820 59.99868
55.91668 573.6060 0.1346735 39.99893 59.99581
55.95000 573.9384 0.1345389 39.99797 59.99624
55.98332 574.2724 0.1343659 40.00181 60.00459
56.01668 574.6078 0.1343370 39.99303 60.00088
56.05000 574.9430 0.1342611 40.00959 59.99493
56.08332 575.2810 0.1343640 39.99911 59.99874
56.11666 575.6172 0.1345474 40.00073 60.00461
56.15000 575.9466 0.1337956 39.99750 59.99646
56.18334 576.2797 0.1334406 39.99703 60.00188
56.21668 576.6145 0.1338066 40.01227 60.00151
56.25000 576.9457 0.1334102 39.98928 60.00400
56.28332 577.2798 0.1332702 40.00662 59.99145
56.31666 577.6129 0.1332900 39.99973 60.00332
56.35000 577.9443 0.1328445 39.99504 60.00153
56.38334 578.2760 0.1326134 40.00065 59.99698
56.41668 578.6094 0.1324013 39.99282 59.99957
56.45000 578.9449 0.1326188 40.00682 59.99855
56.48332 579.2806 0.1325780 39.99485 60.00050
56.51668 579.6133 0.1322756 40.00444 60.00934
56.55000 579.9465 0.1319869 39.99172 59.99387
56.58332 580.2808 0.1320422 40.00642 60.00449
56.61666 580.6142 0.1318677 39.99928 59.99948
56.65000 580.9479 0.1317324 40.00228 59.99326
56.68334 581.2828 0.1318816 40.00456 60.00380
56.71668 581.6169 0.1319149 40.00412 59.99851
56.75000 581.9488 0.1315587 40.00125 60.00556
56.78332 582.2824 0.1313646 39.98889 59.99526
56.81666 582.6148 0.1313626 40.01763 60.00044
56.85000 582.9498 0.1314757 39.98982 60.00210
56.88334 583.2810 0.1311444 39.98730 59.99824
56.91668 583.6122 0.1306674 40.00217 60.00235
56.95000 583.9490 0.1308905 39.99733 59.99270
56.98332 584.2842 0.1311389 40.00990 60.00295
57.01668 584.6176 0.1310011 39.99744 60.00787
57.05000 584.9560 0.1314782 40.00633 59.99130
57.08332 585.2930 0.1316648 39.99961 59.99990
57.11666 585.6230 0.1312075 39.98798 60.00709
57.15000 585.9492 0.1301005 40.01678 59.98426
57.18334 586.2800 0.1299770 39.99980 60.01360
57.21668 586.6129 0.1300315 40.00359 60.00132
57.25000 586.9491 0.1302737 39.99200 59.99903
57.28332 587.2863 0.1304354 39.98748 60.00615
57.31666 587.6216 0.1302521 40.01884 59.98822
57.35000 587.9555 0.1301296 39.99800 59.99820
57.38334 588.2888 0.1300329 39.98913 60.00305
57.41668 588.6234 0.1301339 40.01010 59.99813
57.45000 588.9578 0.1300290 39.98282 59.99707
57.48332 589.2914 0.1302021 40.00056 60.00312
57.51668 589.6264 0.1303575 40.01994 60.00464
57.55000 589.9578 0.1302018 39.99824 60.00070
57.58332 590.2891 0.1298600 39.99465 59.99776
57.61666 590.6218 0.1297360 40.00172 60.00105
57.65000 590.9563 0.1298805 40.00012 59.99395
57.68334 591.2900 0.1298823 39.99500 59.99493
57.71668 591.6246 0.1298204 40.00234 60.01660
57.75000 591.9574 0.1296219 40.00896 59.99234
57.78332 592.2910 0.1295692 39.98787 59.99990
57.81666 592.6254 0.1295118 39.99500 59.99421
57.85000 592.9613 0.1296088 39.99786 60.01765
57.88334 593.3004 0.1304102 40.00217 59.98884
57.91668 593.6344 0.1303958 40.00210 60.00462
57.95000 593.9670 0.1300684 39.99804 60.00305
57.98332 594.3000 0.1303518 40.00060 59.99594
58.01668 594.6278 0.1297451 40.00406 59.99180
58.05000 594.9594 0.1296398 40.00074 60.00412
58.08332 595.2908 0.1294543 40.00100 59.99540
