CLOSED
Version	1.0
Language	English
Run	1
RunSerial	823
Instrument	TGA Q500 V6.7 Build 203
Module	TGA
InstSerial	0500-0499
Operator	at615
File	C:\TA\Data\TGA\ak794\anders\ZIF8cellulose rods sample3.001
FurnaceType	Standard
Sample	ZIF8 cellulose rods in air s3
Size	6.58800	mg
ProcName
Method	
Comment	
Xcomment	Pan: Platinum
Xcomment	Gas1: Air
Xcomment	Gas2: Air
Xcomment	Balance Gas: Air 40.0 ml/min
Xcomment	Sample Gas: Air 60.0 ml/min
Text	Cellulose rods and zif8 degradation in air. Sample 3
Kcell	1.00000
TempCal	3	pts	20.00	20.00,364.00	356.00,776.00	770.00
InstCalDate	Weight Date 2013-03-01 10:10:44
Controls	Gas 2  Event Off  Sampling 2.0
Nsig	5
Sig1	Time (min)
Sig2	Temperature (°C)
Sig3	Weight (mg)
Sig4	Balance Purge Flow (mL/min)
Sig5	Sample Purge Flow (mL/min)
AirCoolTime	20.0 min
AutoAnalysis	Off
MacroFile
Date	2013-03-11
Time	18:35:16
OrgMethod	1: Ramp 10.00 °C/min to 600.00 °C
OrgFile	C:\Users\AIM_Group\Desktop\post doc cambridge\Students files\Internships\Anders\anders tga\anders\ZIF8cellulose rods sample3.001
7.33333E-4 17.91302 6.588430 40.00728 60.00686
0.01666667 17.93209 6.588140 40.00306 59.99593
0.05000000 17.96540 6.587989 39.97847 59.99885
0.08333334 18.02558 6.587891 40.01383 60.00093
0.1166666 18.10902 6.587568 40.00415 59.99586
0.1500000 18.21593 6.588085 39.99294 60.00284
0.1833334 18.34525 6.587910 40.00744 59.99770
0.2166667 18.49248 6.588032 39.98512 59.99150
0.2500000 18.65753 6.587971 40.01031 60.01888
0.2833333 18.83759 6.587708 39.99872 59.98965
0.3166666 19.03227 6.587772 39.99004 59.99226
0.3500000 19.23667 6.587671 40.01630 60.00768
0.3833333 19.45400 6.588018 40.00104 59.99311
0.4166666 19.68041 6.587934 39.98620 60.00242
0.4500000 19.91752 6.587369 40.01184 60.00806
0.4833333 20.16113 6.587275 39.99994 59.99825
0.5166666 20.41283 6.587060 40.00194 59.99875
0.5500000 20.67332 6.587188 39.98382 59.99158
0.5833332 20.93810 6.586708 40.00838 60.00239
0.6166668 21.20960 6.586575 40.00526 59.99708
0.6500000 21.48703 6.586499 39.99740 60.00826
0.6833334 21.76864 6.586219 39.98809 59.99700
0.7166666 22.05529 6.586122 40.00552 60.00025
0.7500000 22.34550 6.585493 40.00334 60.00826
0.7833334 22.63985 6.585274 39.99376 59.99550
0.8166668 22.93830 6.585163 40.00523 60.00289
0.8500000 23.24122 6.584849 40.00765 59.99446
0.8833332 23.54494 6.584530 39.98796 59.99676
0.9166668 23.85282 6.583869 40.00750 60.00302
0.9500000 24.16039 6.583758 39.99236 59.99861
0.9833334 24.47241 6.583497 40.00041 59.99491
1.016667 24.78518 6.583257 40.01102 60.00688
1.050000 25.10180 6.582842 39.99568 59.99470
1.083334 25.41774 6.582376 39.98944 59.99849
1.116667 25.73685 6.582212 40.00758 60.00120
1.150000 26.05486 6.582656 40.00435 60.01000
1.183333 26.37588 6.582397 39.98917 59.98610
1.216667 26.69638 6.581466 40.00428 60.00074
1.250000 27.01832 6.580372 40.00726 59.99936
1.283333 27.34106 6.579724 39.99774 60.00292
1.316667 27.66258 6.580318 39.99783 60.00235
1.350000 27.98510 6.580270 40.00300 60.00274
1.383333 28.30936 6.579594 40.00089 60.00144
1.416666 28.63291 6.579166 39.99898 60.00668
1.450000 28.95502 6.579487 39.99101 59.98596
1.483334 29.27868 6.578762 40.00156 60.00066
1.516666 29.60273 6.578150 39.99919 60.00715
1.550000 29.92664 6.577741 40.00780 59.99332
1.583334 30.25000 6.576784 40.00009 60.00671
1.616666 30.57314 6.576382 40.00033 60.00099
1.650000 30.89894 6.575816 40.00177 60.00100
1.683333 31.22288 6.575519 39.99688 59.99678
1.716667 31.54563 6.574962 39.99825 59.99141
1.750000 31.86958 6.575619 40.00338 60.00208
1.783333 32.19264 6.575259 39.99942 60.00575
1.816667 32.51570 6.574568 39.99904 60.00176
1.850000 32.83782 6.574438 39.99436 59.99712
1.883334 33.16029 6.574060 40.00472 60.00216
1.916666 33.48328 6.573440 40.00133 60.00050
1.950000 33.80487 6.572861 39.99393 60.00212
1.983334 34.12872 6.572701 39.99793 59.99486
2.016666 34.44933 6.572290 40.00325 59.99866
2.050000 34.77186 6.571734 40.00039 60.01035
2.083333 35.09306 6.571594 40.00647 59.99891
2.116666 35.41528 6.571314 40.00203 59.99943
2.150000 35.73756 6.570905 39.99574 59.99654
2.183334 36.05772 6.570657 39.99414 59.99346
2.216667 36.38098 6.570162 39.99787 60.00117
2.250000 36.70242 6.569480 40.00854 60.00572
2.283333 37.02261 6.569030 39.99282 59.99118
2.316666 37.34530 6.568857 40.00930 60.00747
2.350000 37.66562 6.568735 39.99902 59.99949
2.383334 37.98841 6.568422 39.99282 59.99436
2.416667 38.30935 6.567964 40.00440 59.99550
2.450000 38.63056 6.567578 40.00332 60.01075
2.483334 38.95266 6.567007 39.99736 59.99802
2.516666 39.27517 6.566862 39.99885 59.99708
2.550000 39.59768 6.566849 40.00374 60.00549
2.583333 39.92012 6.566443 40.00062 59.99907
2.616666 40.24182 6.566036 39.99529 60.00239
2.650000 40.56437 6.565790 40.00214 59.99695
2.683334 40.88622 6.565024 39.99152 59.99438
2.716667 41.20938 6.564751 40.01062 60.00616
2.750000 41.53212 6.564268 39.99694 60.00030
2.783333 41.85361 6.563858 40.00254 60.00156
2.816666 42.17762 6.563689 39.99004 59.98945
2.850000 42.50228 6.563549 40.00187 60.00149
2.883334 42.82552 6.563130 39.99860 60.00208
2.916667 43.14770 6.562888 40.00719 60.00686
2.950000 43.47211 6.562569 39.99634 59.99062
2.983334 43.79652 6.561899 40.00102 60.00185
3.016666 44.12027 6.561598 40.00336 60.00570
3.050000 44.44468 6.561581 39.99384 59.99972
3.083333 44.76967 6.561352 39.99844 60.00562
3.116666 45.09534 6.560974 40.01200 59.98994
3.150000 45.41933 6.560568 39.99880 60.00988
3.183334 45.74565 6.560304 39.99744 59.99351
3.216667 46.07026 6.559930 40.00378 60.00285
3.250000 46.39523 6.559592 39.99705 59.99906
3.283333 46.72082 6.559254 39.99254 59.99848
3.316666 47.04666 6.559016 40.00337 59.99863
3.350000 47.37194 6.558645 39.99776 60.00190
3.383334 47.69888 6.558284 40.00500 59.99356
3.416667 48.02565 6.557918 39.99734 60.01086
3.450000 48.35338 6.557757 40.00249 60.00050
3.483333 48.67899 6.557272 39.99448 59.99322
3.516667 49.00664 6.556926 40.00790 60.00205
3.550000 49.33278 6.556655 39.99911 60.00440
3.583333 49.66064 6.556436 39.99296 59.98526
3.616666 49.98848 6.556246 40.01095 60.01448
3.650000 50.31610 6.555803 39.99654 59.99018
3.683334 50.64484 6.555494 39.99605 60.00166
3.716667 50.97336 6.555307 39.99917 60.00700
3.750000 51.30297 6.555157 40.00278 59.98750
3.783333 51.63292 6.554884 39.99685 60.01057
3.816666 51.96235 6.554468 39.99635 59.99118
3.850000 52.29208 6.554186 39.99544 60.00220
3.883334 52.62015 6.553934 40.01151 60.00724
3.916667 52.95014 6.553640 39.99597 59.99982
3.950000 53.27891 6.553321 39.99910 59.99003
3.983333 53.60942 6.553000 40.00089 60.00692
4.016667 53.94005 6.552705 40.00369 60.00214
4.050000 54.26985 6.552559 40.00583 59.99451
4.083334 54.60146 6.552426 39.98543 60.00451
4.116667 54.93368 6.552212 40.00288 59.99287
4.150000 55.26290 6.551807 40.00268 60.01101
4.183334 55.59453 6.551314 40.00186 59.99135
4.216667 55.92421 6.551373 40.00082 60.00534
4.250000 56.25566 6.551140 39.99579 59.99714
4.283333 56.58668 6.551006 40.00358 60.00224
4.316666 56.91800 6.550720 40.00183 59.99963
4.350000 57.24949 6.550318 39.99889 60.00244
4.383333 57.57896 6.549908 39.99615 59.99276
4.416666 57.91030 6.549790 39.98964 60.00463
4.450000 58.24229 6.549592 40.00798 59.99810
4.483333 58.57473 6.549421 40.00476 60.00132
4.516667 58.90585 6.549238 39.99806 59.99174
4.550000 59.23724 6.548906 40.00274 60.00581
4.583334 59.56798 6.548655 40.00850 60.00936
4.616667 59.89940 6.548278 39.98981 59.99424
4.650000 60.23088 6.548004 40.01135 60.00688
4.683334 60.56236 6.547840 39.99702 59.99568
4.716667 60.89486 6.547635 39.99605 60.00064
4.750000 61.22812 6.547596 39.99742 59.99951
4.783333 61.56076 6.547496 40.00326 59.99796
4.816666 61.89244 6.547106 40.00631 60.00690
4.850000 62.22350 6.546840 39.98953 59.98597
4.883333 62.55550 6.546631 39.99998 60.00444
4.916666 62.88698 6.546319 39.98994 59.99420
4.950000 63.21929 6.545951 40.01090 60.00600
4.983333 63.55160 6.545706 40.00808 60.01018
5.016667 63.88422 6.545600 39.98664 59.98589
5.050000 64.21645 6.545391 40.01060 60.00462
5.083334 64.54882 6.545120 40.00702 60.00805
5.116667 64.88120 6.544868 39.97708 59.98432
5.150000 65.21414 6.544903 40.00524 60.00112
5.183334 65.54851 6.545037 40.00284 59.99324
5.216667 65.88070 6.544634 40.00230 60.00982
5.250000 66.21245 6.544150 40.00538 60.01120
5.283332 66.54528 6.543837 39.98442 59.98878
5.316666 66.87820 6.543712 40.00196 59.99750
5.350000 67.21020 6.543622 40.01338 60.00445
5.383332 67.54482 6.543943 40.00004 60.00868
5.416666 67.87690 6.543528 40.00365 59.99280
5.450000 68.20900 6.542818 39.99636 60.00766
5.483332 68.54134 6.542331 40.00600 60.00156
5.516668 68.87402 6.542246 39.99408 59.98293
5.550000 69.20538 6.541910 40.00560 60.01750
5.583334 69.53804 6.541660 39.99005 59.99657
5.616668 69.87236 6.541696 39.99128 59.98340
5.650000 70.20698 6.541861 40.01098 60.01563
5.683334 70.54126 6.541963 39.99657 59.99553
5.716668 70.87376 6.541220 40.01030 59.99639
5.750000 71.20656 6.541004 39.98040 59.99633
5.783332 71.54132 6.541306 40.00446 59.99976
5.816666 71.87450 6.541030 40.00618 60.01066
5.850000 72.20757 6.540582 40.00820 59.99786
5.883332 72.54150 6.540244 39.99606 60.00335
5.916666 72.87498 6.540214 39.99178 59.99555
5.950000 73.20804 6.539848 40.00382 59.99537
5.983332 73.54199 6.539550 40.00704 60.00857
6.016668 73.87556 6.539557 39.98529 59.98918
6.050000 74.20900 6.539234 40.01142 60.00780
6.083334 74.54184 6.538964 40.00276 60.00559
6.116668 74.87616 6.538933 39.97954 59.98796
6.150000 75.20978 6.538805 40.00624 60.00015
6.183334 75.54368 6.538674 39.99760 60.01326
6.216668 75.87784 6.538438 40.00180 59.99370
6.250000 76.20955 6.537937 40.00465 59.99660
6.283332 76.54161 6.537384 40.00606 60.00550
6.316666 76.87515 6.537042 39.99188 59.99140
6.350000 77.20924 6.537151 39.99762 59.99463
6.383332 77.54426 6.537290 40.01430 60.01528
6.416666 77.87735 6.536949 39.99032 59.99712
6.450000 78.21157 6.536800 40.00969 59.99938
6.483332 78.54522 6.536802 39.98668 59.99576
6.516668 78.87966 6.536671 40.00332 60.00450
6.550000 79.21328 6.536470 39.99518 59.99558
6.583334 79.54634 6.535844 39.99772 59.99757
6.616668 79.87900 6.535450 40.01765 60.00384
6.650000 80.21374 6.535406 39.99717 60.00359
6.683334 80.54750 6.535418 39.99042 59.99248
6.716666 80.88022 6.535064 40.00650 60.00035
6.750000 81.21384 6.534770 40.00555 60.00112
6.783334 81.54714 6.534512 39.98268 60.00394
6.816666 81.88038 6.533970 40.00390 59.99498
6.850000 82.21262 6.533550 40.00030 59.99731
6.883332 82.54451 6.533324 40.01087 60.01400
6.916666 82.87824 6.533066 40.00342 59.99742
6.950000 83.21158 6.532709 39.99687 59.99373
6.983332 83.54551 6.532722 40.00763 60.00666
7.016668 83.88100 6.532905 39.98052 59.99624
7.050000 84.21637 6.532761 40.00786 59.99398
7.083334 84.54790 6.532109 40.00110 60.00187
7.116668 84.88201 6.531513 40.00488 60.00544
7.150000 85.21842 6.532254 39.98792 59.98818
7.183334 85.55082 6.531082 40.00590 60.00434
7.216666 85.88309 6.530597 40.00465 60.00558
7.250000 86.21628 6.530274 39.98970 59.99665
7.283334 86.54861 6.529949 39.99617 59.99802
7.316666 86.88081 6.529711 40.01365 60.00875
7.350000 87.21613 6.529604 39.98920 59.99004
7.383332 87.55097 6.529462 40.00919 60.00634
7.416666 87.88566 6.529260 39.99839 59.99788
7.450000 88.21952 6.528903 40.00150 60.00070
7.483332 88.55311 6.528458 39.99559 60.00265
7.516668 88.88580 6.527847 39.99234 60.00524
7.550000 89.21922 6.527448 40.01494 59.99982
7.583334 89.55157 6.527056 39.99534 59.99852
7.616668 89.88611 6.526802 39.99154 59.98981
7.650000 90.21974 6.526495 40.00560 60.00165
7.683334 90.55406 6.526052 39.99358 59.99816
7.716666 90.88651 6.525479 39.99999 60.00837
7.750000 91.21918 6.525190 40.00132 59.98908
7.783334 91.55356 6.524850 40.00490 60.00452
7.816666 91.88735 6.524578 39.99600 60.00282
7.850000 92.22285 6.524362 40.00329 59.99627
7.883332 92.55774 6.524048 39.99884 59.99804
7.916666 92.89042 6.523574 40.00454 60.00890
7.950000 93.22400 6.523012 39.99878 60.00641
7.983332 93.55722 6.522419 40.00262 59.99247
8.016666 93.89087 6.521936 39.99242 59.99034
8.050000 94.22388 6.521440 40.00912 60.01166
8.083332 94.55649 6.520709 39.98987 60.00244
8.116668 94.89025 6.520508 40.01007 59.99452
8.150000 95.22444 6.520176 40.00019 60.00587
8.183334 95.55793 6.519588 39.99690 59.99922
8.216666 95.89322 6.519186 39.99937 59.99893
8.250000 96.22696 6.518699 39.99274 59.99449
8.283334 96.56022 6.517928 40.00338 60.00886
8.316666 96.89321 6.517488 40.00862 59.99787
8.350000 97.22684 6.517095 39.98886 59.99098
8.383332 97.56076 6.516809 40.00225 60.00365
8.416668 97.89447 6.516057 39.99945 59.99500
8.450000 98.22816 6.515753 40.00967 60.01032
8.483334 98.56110 6.515124 39.98797 59.99289
8.516666 98.89349 6.514426 40.00537 59.99556
8.550000 99.22662 6.513626 39.99596 59.99932
8.583332 99.55842 6.513038 40.00388 60.01112
8.616668 99.89156 6.512314 40.00361 60.00141
8.650000 100.2244 6.511732 39.99275 59.99111
8.683334 100.5579 6.510965 40.00544 60.00343
8.716666 100.8899 6.510184 40.00186 59.99389
8.750000 101.2241 6.510086 39.99380 59.99880
8.783334 101.5576 6.509371 40.00137 60.00847
8.816666 101.8911 6.508614 40.00668 60.00292
8.850000 102.2253 6.508005 39.99094 59.99082
8.883332 102.5573 6.507231 40.00933 60.00676
8.916668 102.8904 6.506407 39.98979 59.99818
8.950000 103.2237 6.505594 40.00174 60.00376
8.983334 103.5575 6.504996 39.99970 59.99052
9.016666 103.8911 6.504389 40.00414 60.00980
9.050000 104.2236 6.503368 40.00538 59.99818
9.083332 104.5577 6.502522 39.99746 59.99944
9.116668 104.8919 6.501868 39.99224 59.99389
9.150000 105.2241 6.500978 40.00470 60.00840
9.183334 105.5569 6.499932 39.99950 59.99293
9.216666 105.8899 6.499035 40.00322 60.00774
9.250000 106.2232 6.498130 39.99389 59.98555
9.283334 106.5570 6.497318 40.00390 60.00795
9.316666 106.8908 6.496547 39.99761 59.99503
9.350000 107.2234 6.495445 39.99655 60.00300
9.383332 107.5565 6.494590 40.00516 60.00596
9.416668 107.8912 6.493750 39.99710 59.99658
9.450000 108.2230 6.492766 40.00633 59.99970
9.483334 108.5548 6.491516 39.99260 60.00404
9.516666 108.8878 6.490219 40.00305 59.99409
9.550000 109.2200 6.489221 40.00317 60.00743
9.583332 109.5536 6.488352 39.99265 59.99412
9.616668 109.8880 6.487326 40.00450 60.00611
9.650000 110.2229 6.486484 39.99041 59.99474
9.683334 110.5575 6.485632 40.00896 60.00318
9.716666 110.8904 6.484156 39.99820 59.99582
9.750000 111.2228 6.482992 40.00556 60.00278
9.783334 111.5566 6.481955 39.99910 59.99889
9.816666 111.8910 6.480932 39.99311 59.99965
9.850000 112.2234 6.479504 39.99922 60.00694
9.883332 112.5573 6.478067 40.00444 59.99521
9.916668 112.8890 6.476704 39.99578 59.99770
9.950000 113.2226 6.475455 40.00869 60.00328
9.983334 113.5557 6.474207 39.99489 59.98904
10.01667 113.8894 6.472952 40.00302 60.01030
10.05000 114.2239 6.471912 39.98992 60.00322
10.08333 114.5588 6.470713 40.00679 59.99348
10.11667 114.8914 6.469124 40.00045 60.00064
10.15000 115.2259 6.467737 40.01253 60.01038
10.18333 115.5591 6.466510 39.98704 59.99070
10.21667 115.8927 6.464906 39.99426 59.99786
10.25000 116.2241 6.463276 40.01361 60.00068
10.28333 116.5556 6.461580 39.99483 60.00229
10.31667 116.8891 6.460234 40.00236 60.00234
10.35000 117.2239 6.458880 39.99594 59.99340
10.38333 117.5569 6.457328 40.00631 60.00951
10.41667 117.8894 6.455575 39.99692 59.99666
10.45000 118.2229 6.454111 39.99644 59.99524
10.48333 118.5566 6.452747 39.99840 59.99940
10.51666 118.8917 6.451464 39.99506 60.00730
10.55000 119.2254 6.449898 40.00946 59.99164
10.58333 119.5576 6.447850 39.98664 59.99330
10.61667 119.8912 6.446094 40.01163 60.00754
10.65000 120.2235 6.444441 40.00776 60.00455
10.68334 120.5585 6.443137 39.98670 59.99187
10.71666 120.8919 6.441426 40.01580 60.01275
10.75000 121.2268 6.439808 39.98783 59.98740
10.78334 121.5602 6.437963 39.99900 59.99855
10.81666 121.8936 6.436160 40.01320 60.01275
10.85000 122.2260 6.434287 39.98156 59.99344
10.88333 122.5560 6.431798 40.00375 60.00542
10.91667 122.8857 6.429512 40.00152 60.00637
10.95000 123.2203 6.428110 40.01117 59.98378
10.98334 123.5560 6.426850 39.98346 60.01443
11.01666 123.8881 6.424701 40.00374 60.00176
11.05000 124.2201 6.422269 39.99506 59.98120
11.08333 124.5546 6.420533 40.01578 60.01920
11.11667 124.8872 6.418709 40.00072 59.99660
11.15000 125.2199 6.416430 39.98500 59.98340
11.18334 125.5524 6.414344 40.00203 60.01389
11.21666 125.8884 6.412812 39.99650 59.99878
11.25000 126.2212 6.410479 40.00819 60.00839
11.28334 126.5527 6.408147 40.01048 59.98608
11.31666 126.8876 6.406142 39.99622 60.01284
11.35000 127.2199 6.403970 40.00468 59.99370
11.38333 127.5527 6.401802 39.99202 59.99688
11.41667 127.8885 6.399900 39.98944 60.00208
11.45000 128.2269 6.398530 40.01048 59.98522
11.48334 128.5614 6.395996 39.98653 60.00739
11.51666 128.8948 6.393757 40.02004 59.99588
11.55000 129.2277 6.391224 39.99950 60.01342
11.58333 129.5577 6.388286 39.98416 59.99011
11.61667 129.8882 6.385634 40.00190 60.00074
11.65000 130.2212 6.383484 40.00922 60.01281
11.68334 130.5530 6.381174 40.00132 59.99860
11.71666 130.8863 6.378546 40.00128 59.99792
11.75000 131.2182 6.376102 40.00434 60.00194
11.78334 131.5516 6.374040 39.98407 59.98370
11.81666 131.8849 6.371421 39.99748 60.01199
11.85000 132.2169 6.368658 40.00020 59.99791
11.88333 132.5502 6.366248 40.01259 59.99976
11.91667 132.8840 6.363994 40.00446 59.99092
11.95000 133.2169 6.361391 39.98594 60.01324
11.98334 133.5512 6.358801 40.00874 59.98524
12.01666 133.8858 6.356320 39.99964 60.01301
12.05000 134.2190 6.353783 39.98803 59.99047
12.08333 134.5529 6.351194 40.00353 59.99736
12.11667 134.8868 6.348492 40.01431 60.00976
12.15000 135.2197 6.345810 39.98305 60.00329
12.18334 135.5513 6.342938 40.00616 59.99830
12.21666 135.8851 6.340194 39.99606 60.00562
12.25000 136.2193 6.337593 40.01622 59.99572
12.28334 136.5537 6.334936 39.98606 59.98800
12.31666 136.8862 6.332007 40.00963 60.00220
12.35000 137.2187 6.328876 39.98660 60.00499
12.38333 137.5500 6.326047 40.00647 59.99291
12.41667 137.8829 6.323193 39.99400 60.00134
12.45000 138.2184 6.320455 40.00556 60.00898
12.48334 138.5543 6.317890 40.00348 59.99190
12.51666 138.8878 6.315035 39.99125 60.00700
12.55000 139.2197 6.311736 40.01219 60.00135
12.58333 139.5530 6.308874 40.00066 59.99395
12.61667 139.8870 6.306000 39.99907 60.01081
12.65000 140.2216 6.303232 39.98578 59.99885
12.68334 140.5542 6.300219 40.00068 60.00022
12.71666 140.8862 6.296793 40.00867 59.99793
12.75000 141.2173 6.293575 39.99213 59.99101
12.78334 141.5500 6.290524 40.01004 59.99872
12.81667 141.8825 6.287428 40.00118 60.00646
12.85000 142.2162 6.284566 39.99875 59.99634
12.88333 142.5503 6.281696 39.98805 60.01034
12.91667 142.8860 6.278941 40.01100 59.99801
12.95000 143.2213 6.276142 40.00383 59.99830
12.98334 143.5530 6.272584 39.99387 60.00696
13.01666 143.8853 6.268943 40.00922 59.99184
13.05000 144.2164 6.265548 39.99048 60.01172
13.08333 144.5449 6.261907 39.99783 59.97966
13.11667 144.8776 6.258942 39.99900 60.00700
13.15000 145.2118 6.256282 40.00171 59.99190
13.18333 145.5477 6.253586 39.99618 60.01054
13.21666 145.8811 6.250491 39.99887 59.99234
13.25000 146.2138 6.247040 40.00514 60.00864
13.28334 146.5464 6.243744 40.00139 59.99038
13.31667 146.8805 6.240464 40.00816 60.00066
13.35000 147.2157 6.237731 39.99964 60.00478
13.38333 147.5487 6.234358 39.99732 60.00426
13.41667 147.8814 6.230937 40.00250 59.99700
13.45000 148.2164 6.227944 39.99235 59.99278
13.48334 148.5511 6.224951 39.99828 60.00410
13.51666 148.8832 6.221466 40.00531 60.00216
13.55000 149.2154 6.218067 39.99597 59.99518
13.58333 149.5466 6.214484 40.00246 60.01133
13.61667 149.8810 6.211620 39.99612 59.99250
13.65000 150.2168 6.208701 39.99661 60.00274
13.68333 150.5492 6.205410 39.99960 59.99706
13.71666 150.8842 6.202309 40.01083 60.00641
13.75000 151.2165 6.199123 39.99988 59.99060
13.78334 151.5494 6.195720 39.99022 60.00992
13.81667 151.8834 6.192571 40.00644 59.98956
13.85000 152.2149 6.189236 39.99868 60.00020
13.88333 152.5482 6.186171 40.00285 60.00284
13.91667 152.8814 6.183014 39.99616 59.99478
13.95000 153.2130 6.179782 40.00288 60.00691
13.98334 153.5476 6.176623 39.99512 60.00081
14.01666 153.8804 6.173626 39.99624 60.00394
14.05000 154.2142 6.170498 40.00046 59.99230
14.08333 154.5463 6.167195 40.01077 59.99873
14.11667 154.8785 6.164040 39.98662 60.00176
14.15000 155.2107 6.160840 40.01322 60.00589
14.18333 155.5432 6.157771 39.99528 59.99304
14.21666 155.8772 6.154785 40.00425 60.00282
14.25000 156.2113 6.151915 39.99560 59.99676
14.28334 156.5449 6.148950 40.00202 60.01411
14.31667 156.8781 6.145756 40.00383 59.99282
14.35000 157.2132 6.143146 39.99402 60.00066
14.38333 157.5476 6.140156 40.00769 59.99965
14.41667 157.8796 6.136680 39.99112 60.00106
14.45000 158.2095 6.133365 39.99620 59.98330
14.48334 158.5395 6.129963 40.00570 60.00785
14.51666 158.8717 6.126946 40.00378 60.00229
14.55000 159.2053 6.124271 39.99746 59.99668
14.58333 159.5398 6.121612 39.99313 60.00381
14.61667 159.8744 6.118940 40.00330 59.99936
14.65000 160.2095 6.116060 40.00105 59.99477
14.68333 160.5417 6.112835 40.00661 60.02386
14.71666 160.8748 6.109805 39.99468 59.97918
14.75000 161.2091 6.106984 40.00605 60.00950
14.78334 161.5413 6.103884 39.99765 59.99178
14.81667 161.8736 6.100910 39.99958 60.01041
14.85000 162.2061 6.097934 39.99406 59.99560
14.88333 162.5380 6.094900 39.99700 59.99796
14.91667 162.8714 6.092026 40.01056 59.99450
14.95000 163.2066 6.089421 39.99822 59.99940
14.98334 163.5417 6.086811 39.99392 60.00696
15.01666 163.8771 6.084046 40.00074 59.99472
15.05000 164.2108 6.080997 40.00552 60.00729
15.08333 164.5434 6.077850 39.99430 60.00315
15.11667 164.8752 6.074522 40.00106 59.98925
15.15000 165.2048 6.071190 39.99915 60.00720
15.18333 165.5369 6.068045 40.00116 59.99428
15.21666 165.8705 6.065566 39.99959 60.00269
15.25000 166.2030 6.062489 40.00115 60.00229
15.28334 166.5359 6.059361 39.99785 59.99512
15.31667 166.8683 6.056202 40.00634 60.00288
15.35000 167.2029 6.053389 39.99396 60.00041
15.38333 167.5359 6.050293 40.01043 60.00546
15.41667 167.8670 6.046799 39.98450 59.99978
15.45000 168.1989 6.043298 40.01681 59.98837
15.48334 168.5318 6.040149 39.99944 60.00300
15.51666 168.8662 6.037195 39.99452 59.99918
15.55000 169.1995 6.033922 39.99725 60.00382
15.58333 169.5336 6.030903 39.99180 60.00502
15.61667 169.8703 6.028356 39.99678 60.00320
15.65000 170.2034 6.024735 40.00574 59.99540
15.68333 170.5344 6.020756 40.00442 60.00291
15.71666 170.8681 6.017451 39.99316 59.98838
15.75000 171.2015 6.014188 40.01860 60.00184
15.78334 171.5353 6.010708 39.99498 59.99328
15.81667 171.8676 6.007290 39.99153 60.01526
15.85000 172.1979 6.003580 39.99426 59.99942
15.88333 172.5313 5.999992 40.01653 59.99311
15.91667 172.8638 5.996416 39.99139 60.00262
15.95000 173.1965 5.992718 39.99700 60.00447
15.98334 173.5282 5.989023 40.01030 59.99026
16.01666 173.8600 5.985261 39.99441 60.00618
16.05000 174.1937 5.981848 39.99456 59.98950
16.08334 174.5297 5.978643 40.01144 60.00880
16.11667 174.8647 5.975041 39.99387 60.00585
16.15000 175.1981 5.971285 39.99163 60.00495
16.18333 175.5333 5.967610 39.99437 59.99640
16.21667 175.8672 5.963950 40.01694 59.98559
16.25000 176.1991 5.959906 39.99100 60.01347
16.28333 176.5313 5.956026 40.01880 59.98691
16.31667 176.8648 5.952224 39.98004 60.00971
16.35000 177.1951 5.948140 40.00339 59.98521
16.38333 177.5283 5.944171 40.00161 60.01400
16.41666 177.8597 5.940500 39.98957 59.99703
16.45000 178.1927 5.936626 40.01692 59.99426
16.48334 178.5262 5.933057 40.00362 60.00050
16.51666 178.8620 5.929615 39.98522 60.01266
16.55000 179.1952 5.925797 40.00516 59.98542
16.58334 179.5301 5.922037 40.01342 59.99874
16.61667 179.8625 5.918272 39.97970 60.01655
16.65000 180.1925 5.914031 40.01663 59.98648
16.68333 180.5251 5.910126 39.98020 60.01688
16.71667 180.8597 5.907026 40.00714 59.97693
16.75000 181.1954 5.903660 40.01358 60.00875
16.78333 181.5312 5.900350 39.99522 59.99480
16.81667 181.8624 5.896365 40.00305 60.01732
16.85000 182.1927 5.892382 39.98297 59.99774
16.88333 182.5278 5.889216 40.01783 59.98738
16.91666 182.8602 5.885786 39.99334 60.01170
16.95000 183.1935 5.882390 39.99661 59.98828
16.98334 183.5272 5.879049 40.00732 59.99990
17.01666 183.8594 5.875618 39.98640 60.01324
17.05000 184.1923 5.872236 40.00286 59.99379
17.08334 184.5256 5.868882 39.99883 60.00969
17.11667 184.8579 5.865512 40.01470 59.98251
17.15000 185.1928 5.862576 39.98606 60.01011
17.18333 185.5259 5.859389 40.00610 60.00020
17.21667 185.8611 5.856390 39.99972 59.99343
17.25000 186.1940 5.853114 40.00814 59.99666
17.28333 186.5265 5.849732 39.99334 60.00238
17.31667 186.8582 5.846506 39.99763 60.00762
17.35000 187.1919 5.843572 40.00046 59.99346
17.38333 187.5248 5.840504 39.99680 60.00379
17.41666 187.8578 5.837460 40.00969 59.99688
17.45000 188.1902 5.834424 39.99916 59.99582
17.48334 188.5240 5.831520 39.99150 60.00722
17.51666 188.8561 5.828404 39.99802 60.00182
17.55000 189.1898 5.825382 39.99765 60.00384
17.58334 189.5248 5.822705 40.01709 59.98743
17.61667 189.8577 5.819625 39.98060 60.00322
17.65000 190.1896 5.816613 40.00824 60.00739
17.68333 190.5223 5.813691 40.00605 59.98540
17.71667 190.8554 5.810814 39.99456 60.00370
17.75000 191.1878 5.807920 39.99552 60.00000
17.78333 191.5218 5.805234 39.99668 60.00581
17.81667 191.8551 5.802400 40.00032 60.00412
17.85000 192.1899 5.799570 40.00060 59.99182
17.88333 192.5229 5.796826 40.01472 59.99180
17.91666 192.8548 5.793800 39.98878 60.01965
17.95000 193.1878 5.790861 40.00722 59.99888
17.98334 193.5218 5.788276 39.99065 59.99120
18.01666 193.8535 5.785482 39.99994 60.00701
18.05000 194.1866 5.782618 40.01105 59.99694
18.08334 194.5184 5.779742 39.99386 59.99084
18.11667 194.8510 5.776924 40.00344 60.01872
18.15000 195.1825 5.774055 39.99944 59.98739
18.18333 195.5135 5.771156 40.00008 59.99660
18.21667 195.8488 5.768732 39.99812 60.01295
18.25000 196.1838 5.766433 40.00162 59.98522
18.28333 196.5203 5.764063 39.99390 60.01074
18.31667 196.8545 5.761280 40.00617 60.00368
18.35000 197.1884 5.758544 39.99318 59.99828
18.38333 197.5209 5.755626 40.00980 59.99338
18.41666 197.8544 5.752930 39.99904 60.00031
18.45000 198.1851 5.750006 40.00100 60.00772
18.48334 198.5186 5.747300 39.99360 60.00215
18.51666 198.8509 5.744785 40.00328 59.99451
18.55000 199.1833 5.742051 39.99035 59.99745
18.58334 199.5154 5.739345 40.00972 59.99887
18.61667 199.8476 5.736720 39.99967 60.00686
18.65000 200.1802 5.734042 39.99683 59.99810
18.68333 200.5140 5.731552 40.00841 59.99305
18.71667 200.8461 5.728862 39.99833 60.00270
18.75000 201.1796 5.726085 39.99842 60.00292
18.78333 201.5134 5.723705 39.99942 60.00695
18.81667 201.8464 5.721203 39.99606 59.99400
18.85000 202.1791 5.718430 39.99458 59.99270
18.88333 202.5124 5.715902 40.00482 60.00226
18.91666 202.8448 5.713195 40.00238 59.99703
18.95000 203.1784 5.710424 39.99986 60.00154
18.98334 203.5142 5.708385 40.00088 60.00000
19.01666 203.8464 5.705450 39.99667 60.00450
19.05000 204.1794 5.702828 40.00746 59.99032
19.08334 204.5121 5.700257 39.99105 60.00214
19.11667 204.8438 5.697488 40.00340 60.00556
19.15000 205.1764 5.694847 39.99708 60.00011
19.18333 205.5102 5.692322 39.99605 60.00217
19.21667 205.8444 5.689788 40.00895 59.99952
19.25000 206.1787 5.687476 39.99300 59.99613
19.28333 206.5106 5.684654 40.00470 60.00116
19.31667 206.8449 5.682294 39.99315 60.00102
19.35000 207.1774 5.679581 40.00606 59.99713
19.38333 207.5102 5.676905 40.00494 60.00626
19.41666 207.8436 5.674340 39.99033 59.99944
19.45000 208.1766 5.671840 40.00117 59.99762
19.48334 208.5086 5.669207 39.99719 59.99966
19.51666 208.8434 5.666661 40.00451 59.99556
19.55000 209.1748 5.663860 39.99961 60.00368
19.58334 209.5072 5.661118 40.00967 59.99880
19.61667 209.8405 5.658584 40.00168 60.00101
19.65000 210.1745 5.655961 39.99000 59.99832
19.68333 210.5080 5.653259 39.99747 60.00263
19.71667 210.8403 5.650491 40.00160 59.99441
19.75000 211.1720 5.647659 40.00639 60.00002
19.78333 211.5042 5.644882 39.99002 60.00658
19.81667 211.8379 5.642149 39.99623 59.99950
19.85000 212.1726 5.639542 40.00206 59.99780
19.88333 212.5064 5.636885 40.00406 60.00093
19.91666 212.8404 5.634028 39.99394 60.00463
19.95000 213.1741 5.630932 40.00159 60.00205
19.98334 213.5074 5.627944 40.00662 59.99454
20.01666 213.8412 5.624980 40.00442 60.00020
20.05000 214.1745 5.621982 39.99304 60.00359
20.08334 214.5086 5.619243 40.01567 59.99580
20.11667 214.8440 5.616533 39.98606 60.00549
20.15000 215.1760 5.613240 39.99828 60.00274
20.18333 215.5074 5.609765 40.00569 59.99741
20.21667 215.8377 5.606360 39.99542 59.99403
20.25000 216.1684 5.602950 39.99556 60.00171
20.28333 216.4996 5.599604 40.00726 59.99732
20.31667 216.8346 5.596680 40.00105 60.00646
20.35000 217.1706 5.593650 39.99770 59.99572
20.38333 217.5040 5.590090 40.00800 59.99901
20.41666 217.8361 5.586240 40.00025 59.99028
20.45000 218.1697 5.582500 39.99322 60.01480
20.48334 218.5040 5.578885 40.00676 59.98743
20.51666 218.8381 5.575043 39.98403 60.00056
20.55000 219.1718 5.570912 40.01870 59.99570
20.58334 219.5048 5.566665 39.98310 60.01496
20.61667 219.8383 5.562229 40.00703 60.00620
20.65000 220.1704 5.557885 40.00490 59.98225
20.68333 220.5034 5.553619 40.00635 59.99762
20.71667 220.8361 5.549250 39.97976 60.01220
20.75000 221.1710 5.544961 40.01872 59.99076
20.78333 221.5051 5.540568 39.99538 59.99838
20.81667 221.8373 5.536072 40.00702 59.99880
20.85000 222.1701 5.531355 39.99336 60.01020
20.88333 222.5014 5.526680 39.99203 60.01040
20.91666 222.8348 5.522250 40.01464 59.97618
20.95000 223.1677 5.517746 39.99228 60.00572
20.98334 223.5006 5.513016 39.98889 60.01871
21.01666 223.8334 5.508516 40.00100 59.99701
21.05000 224.1670 5.504058 39.99603 60.00322
21.08334 224.5009 5.499732 40.01350 59.98693
21.11667 224.8349 5.495430 39.98667 60.00715
21.15000 225.1684 5.491162 40.01687 59.98826
21.18333 225.5013 5.486972 39.99316 60.00993
21.21667 225.8341 5.482715 39.99215 60.00369
21.25000 226.1666 5.478687 40.00946 59.99550
21.28333 226.4987 5.474524 39.98845 60.00542
21.31667 226.8312 5.470562 39.99735 60.00100
21.35000 227.1636 5.466861 40.02517 59.98390
21.38333 227.4948 5.463246 39.98160 60.00662
21.41666 227.8259 5.459407 40.00555 59.99664
21.45000 228.1586 5.456050 39.99387 60.01326
21.48334 228.4925 5.453015 39.99934 59.98894
21.51666 228.8258 5.449834 40.02160 60.00807
21.55000 229.1570 5.446465 39.97986 60.00488
21.58334 229.4882 5.442932 40.01766 59.97928
21.61667 229.8201 5.439813 39.99644 60.00593
21.65000 230.1540 5.437205 40.00472 59.98984
21.68333 230.4843 5.433994 39.98488 60.02301
21.71667 230.8182 5.431199 40.00627 59.98049
21.75000 231.1544 5.428940 40.00338 59.99800
21.78333 231.4859 5.425930 39.99554 60.01837
21.81667 231.8176 5.423044 39.98949 59.98963
21.85000 232.1524 5.420612 40.00141 60.00005
21.88333 232.4852 5.418128 40.00824 60.00862
21.91666 232.8169 5.415392 40.00126 59.99912
21.95000 233.1514 5.413176 40.00679 59.99026
21.98334 233.4867 5.411096 39.99702 60.00590
22.01666 233.8207 5.408694 39.99744 60.00281
22.05000 234.1560 5.406536 39.99328 60.00150
22.08334 234.4884 5.404312 40.00800 59.99758
22.11667 234.8187 5.401824 39.99292 59.99498
22.15000 235.1502 5.399498 39.99832 60.01239
22.18333 235.4825 5.397450 39.99881 59.98669
22.21667 235.8165 5.395490 40.00110 60.00856
22.25000 236.1526 5.393981 40.01078 59.99714
22.28333 236.4840 5.391701 39.98767 59.99590
22.31667 236.8218 5.390156 40.01155 60.00140
22.35000 237.1557 5.388723 39.99730 59.99082
22.38333 237.4868 5.386370 39.99326 60.01343
22.41666 237.8149 5.383884 40.00632 59.98543
22.45000 238.1450 5.381943 39.99583 60.01201
22.48334 238.4749 5.380093 40.00258 59.99756
22.51666 238.8080 5.378672 40.00315 60.00636
22.55000 239.1422 5.377216 40.00248 59.99045
22.58334 239.4766 5.375840 39.99509 60.00597
22.61667 239.8088 5.373992 39.99356 59.99372
22.65000 240.1422 5.372512 39.99263 60.00586
22.68333 240.4769 5.370963 40.01020 59.99474
22.71667 240.8146 5.370031 40.00389 60.00662
22.75000 241.1528 5.368996 39.99134 60.00532
22.78333 241.4866 5.367524 39.99780 59.99611
22.81667 241.8210 5.365906 40.01184 59.99464
22.85000 242.1540 5.364542 39.99334 60.00750
22.88333 242.4850 5.362869 39.99734 59.98981
22.91666 242.8163 5.361433 40.00400 60.00344
22.95000 243.1499 5.360132 40.00154 60.00149
22.98334 243.4815 5.358980 40.00172 60.00492
23.01666 243.8178 5.358012 40.00422 59.99991
23.05000 244.1544 5.357193 39.98613 59.99862
23.08334 244.4887 5.356059 40.00094 60.00247
23.11667 244.8219 5.354552 40.00715 59.99112
23.15000 245.1513 5.353034 39.99524 60.00426
23.18333 245.4806 5.351508 40.00581 59.99818
23.21667 245.8143 5.350679 39.99598 60.00156
23.25000 246.1505 5.350024 40.00109 60.00093
23.28333 246.4822 5.348878 39.99477 59.99809
23.31667 246.8118 5.347059 40.01061 59.99894
23.35000 247.1428 5.345761 40.00075 59.99649
23.38333 247.4764 5.344856 40.00016 60.00310
23.41666 247.8112 5.344137 40.00025 59.99868
23.45000 248.1463 5.343271 39.98478 60.00305
23.48334 248.4781 5.342043 40.00476 60.00364
23.51666 248.8112 5.340859 40.00822 59.99766
23.55000 249.1420 5.339635 40.00322 59.99100
23.58334 249.4763 5.338484 39.99531 60.00350
23.61667 249.8135 5.338081 40.00067 60.00108
23.65000 250.1469 5.337016 40.00140 59.99470
23.68333 250.4807 5.335784 39.99679 60.00830
23.71667 250.8158 5.334852 40.00105 59.99258
23.75000 251.1482 5.333738 40.00016 60.00440
23.78333 251.4798 5.332488 39.99762 60.00680
23.81667 251.8145 5.331684 39.99654 59.99360
23.85000 252.1493 5.330818 40.00555 60.00710
23.88333 252.4824 5.329722 40.00444 59.99230
23.91666 252.8130 5.328342 39.99684 60.00544
23.95000 253.1478 5.327408 39.99950 60.00270
23.98334 253.4831 5.326862 39.99245 59.99588
24.01666 253.8164 5.325756 40.00678 59.99306
24.05000 254.1468 5.324291 39.99840 60.00648
24.08334 254.4806 5.323246 40.00432 59.99106
24.11667 254.8118 5.322256 39.99188 60.00605
24.15000 255.1425 5.320630 40.00828 59.99970
24.18333 255.4746 5.319868 39.99914 60.00444
24.21667 255.8104 5.319190 39.99909 59.99536
24.25000 256.1460 5.318500 40.00131 59.99674
24.28333 256.4778 5.317176 39.99756 59.99907
24.31667 256.8086 5.315844 40.00085 60.00376
24.35000 257.1433 5.314895 39.99235 60.00184
24.38333 257.4754 5.313916 40.00440 60.00402
24.41666 257.8061 5.312426 40.00408 59.99389
24.45000 258.1409 5.311445 39.99739 59.99260
24.48334 258.4757 5.310613 39.99092 60.01246
24.51666 258.8086 5.309448 40.00540 60.00134
24.55000 259.1432 5.308426 40.00810 59.99552
24.58334 259.4762 5.307368 39.98757 60.00459
24.61667 259.8114 5.306426 40.00458 60.00206
24.65000 260.1463 5.305450 40.01080 59.99258
24.68333 260.4798 5.304296 39.98332 60.00789
24.71667 260.8134 5.303140 40.00656 59.99609
24.75000 261.1464 5.302018 40.00500 60.00579
24.78333 261.4807 5.300918 39.99672 59.99296
24.81667 261.8137 5.299789 40.00450 59.99788
24.85000 262.1437 5.298385 39.99435 59.99980
24.88333 262.4759 5.297112 39.99961 60.00727
24.91666 262.8091 5.296118 40.00904 59.99424
24.95000 263.1412 5.294928 39.98930 59.99990
24.98334 263.4740 5.293750 40.00818 60.00170
25.01666 263.8080 5.292631 39.99574 59.99350
25.05000 264.1391 5.291357 39.99846 60.00720
25.08334 264.4730 5.290230 40.00038 60.00074
25.11667 264.8074 5.289102 39.99250 59.99785
25.15000 265.1409 5.288038 40.01072 59.99822
25.18333 265.4732 5.286811 39.99725 59.99880
25.21667 265.8064 5.285541 40.00760 60.00121
25.25000 266.1394 5.284340 39.99462 59.99238
25.28333 266.4738 5.283066 40.00063 60.01424
25.31667 266.8071 5.281921 40.00378 59.99486
25.35000 267.1387 5.280468 39.99631 60.00090
25.38333 267.4728 5.279212 40.00294 59.99006
25.41666 267.8065 5.278018 39.99136 60.01026
25.45000 268.1401 5.276785 40.00358 59.99436
25.48334 268.4736 5.275488 40.00493 60.01265
25.51666 268.8072 5.274172 39.99470 59.98926
25.55000 269.1409 5.272944 40.01018 60.00276
25.58334 269.4766 5.271900 39.99134 60.00488
25.61666 269.8122 5.270750 39.99380 59.98999
25.65000 270.1418 5.268998 40.00126 59.99964
25.68333 270.4720 5.267295 40.00786 60.00406
25.71667 270.8030 5.265818 39.99191 60.00220
25.75000 271.1336 5.264321 39.99842 59.99132
25.78333 271.4692 5.263340 39.99984 59.99879
25.81667 271.8032 5.262202 40.00523 59.99688
25.85000 272.1374 5.260740 39.99263 60.00676
25.88334 272.4725 5.259526 40.01469 60.00849
25.91666 272.8053 5.258079 40.00041 59.99494
25.95000 273.1406 5.256679 40.00491 60.00343
25.98334 273.4763 5.255537 39.98611 59.99410
26.01666 273.8102 5.254205 39.99535 60.00085
26.05000 274.1428 5.252459 39.99844 60.01009
26.08334 274.4736 5.250774 40.00100 60.00250
26.11666 274.8071 5.249097 40.00442 59.98530
26.15000 275.1390 5.247982 39.99740 60.01374
26.18333 275.4729 5.246590 40.01132 60.00369
26.21667 275.8060 5.245147 40.00716 59.99714
26.25000 276.1387 5.243412 39.98748 60.00052
26.28333 276.4687 5.241552 39.98700 59.99226
26.31667 276.8013 5.239973 40.00798 59.99182
26.35000 277.1361 5.238703 39.99380 60.00070
26.38334 277.4683 5.237146 40.01422 60.00426
26.41666 277.8002 5.235296 39.98230 60.00292
26.45000 278.1337 5.233702 40.01958 60.00732
26.48334 278.4690 5.232304 39.99763 60.00308
26.51666 278.8044 5.230946 39.99990 59.99838
26.55000 279.1400 5.229475 39.98550 59.98168
26.58334 279.4747 5.227831 40.00246 60.01226
26.61666 279.8059 5.225898 40.00824 60.00332
26.65000 280.1393 5.224274 39.98987 59.97961
26.68333 280.4730 5.222766 40.00042 60.00300
26.71667 280.8074 5.221264 39.99710 60.01588
26.75000 281.1406 5.219449 40.00051 59.98535
26.78333 281.4732 5.217642 40.00126 60.01950
26.81667 281.8050 5.215844 40.00293 59.99590
26.85000 282.1372 5.214008 40.00037 59.98532
26.88334 282.4693 5.212148 39.99929 60.00360
26.91666 282.8016 5.210463 40.02120 60.00299
26.95000 283.1354 5.208734 39.99313 60.00184
26.98334 283.4683 5.206955 40.00436 60.00148
27.01666 283.8017 5.205118 39.99130 59.99800
27.05000 284.1356 5.203356 40.00560 59.99204
27.08334 284.4703 5.201524 39.99276 60.01586
27.11666 284.8062 5.199840 39.99806 59.98480
27.15000 285.1410 5.198081 40.00356 60.00800
27.18333 285.4738 5.196084 39.98862 59.99336
27.21667 285.8052 5.194009 39.99878 60.00324
27.25000 286.1390 5.192152 40.00737 59.99575
27.28333 286.4723 5.190336 40.00711 60.00242
27.31667 286.8070 5.188453 40.00478 60.01052
27.35000 287.1410 5.186470 39.98990 59.99387
27.38334 287.4752 5.184554 39.99742 60.00064
27.41666 287.8083 5.182535 40.00114 59.99277
27.45000 288.1410 5.180588 40.00973 60.00768
27.48334 288.4739 5.178526 39.99540 59.99280
27.51666 288.8063 5.176533 39.99808 60.01055
27.55000 289.1399 5.174566 39.99391 59.99332
27.58334 289.4723 5.172553 40.00638 59.99868
27.61666 289.8050 5.170338 39.99739 59.99660
27.65000 290.1400 5.168377 39.99665 60.00318
27.68333 290.4756 5.166508 39.99688 59.99470
27.71667 290.8104 5.164551 40.00504 60.01358
27.75000 291.1431 5.162412 40.00021 59.99187
27.78333 291.4768 5.160206 40.00604 59.99990
27.81667 291.8086 5.157962 40.00041 60.01071
27.85000 292.1414 5.155762 39.99160 59.98892
27.88334 292.4746 5.153588 40.01030 60.00669
27.91666 292.8056 5.151290 39.98913 59.98903
27.95000 293.1374 5.148974 40.01210 60.00881
27.98334 293.4711 5.146858 39.99443 59.99652
28.01666 293.8049 5.144868 39.99983 60.00834
28.05000 294.1414 5.142867 40.00160 59.99930
28.08334 294.4752 5.140596 39.99140 59.98566
28.11666 294.8062 5.138030 39.99834 60.01408
28.15000 295.1390 5.135670 40.01065 60.00160
28.18333 295.4733 5.133584 39.99876 59.99129
28.21667 295.8075 5.131500 39.99605 60.01062
28.25000 296.1416 5.129218 39.99736 59.98419
28.28333 296.4750 5.126796 40.01385 60.00266
28.31667 296.8080 5.124488 39.99717 60.00784
28.35000 297.1424 5.122183 39.99299 59.99640
28.38334 297.4778 5.120092 40.00235 60.00448
28.41666 297.8115 5.117682 39.99625 59.99236
28.45000 298.1457 5.115324 40.00964 60.01064
28.48334 298.4785 5.112906 39.99445 59.99798
28.51666 298.8106 5.110356 39.99731 59.98555
28.55000 299.1410 5.107756 40.00483 60.01248
28.58334 299.4734 5.105314 39.99825 59.99540
28.61666 299.8065 5.102989 40.00254 60.00261
28.65000 300.1413 5.100729 39.99864 60.00100
28.68333 300.4727 5.098165 40.00118 59.99921
28.71667 300.8044 5.095428 39.99016 59.99532
28.75000 301.1386 5.093012 40.00661 60.00090
28.78333 301.4738 5.090744 39.99678 60.00188
28.81667 301.8052 5.088150 40.00735 60.00375
28.85000 302.1370 5.085239 39.98859 59.99458
28.88334 302.4697 5.082816 40.00504 59.99730
28.91666 302.8037 5.080442 40.00682 60.01223
28.95000 303.1373 5.077970 39.99283 59.98860
28.98334 303.4722 5.075558 40.00430 60.00326
29.01666 303.8048 5.072789 39.99799 59.99771
29.05000 304.1393 5.070269 39.99281 59.99922
29.08334 304.4740 5.067936 40.00359 60.00449
29.11666 304.8098 5.065572 39.99902 59.99340
29.15000 305.1444 5.063132 40.00276 60.00523
29.18333 305.4748 5.060277 39.99356 59.99812
29.21667 305.8053 5.057104 40.01016 60.00574
29.25000 306.1322 5.053970 39.99890 59.99666
29.28333 306.4631 5.051170 39.99724 59.99514
29.31667 306.7959 5.048721 39.99886 60.00482
29.35000 307.1301 5.046380 40.00748 59.99473
29.38334 307.4666 5.044154 40.00242 60.00158
29.41666 307.8010 5.041521 39.99340 60.00260
29.45000 308.1335 5.038365 39.99218 59.99781
29.48334 308.4702 5.036040 40.00202 59.99934
29.51666 308.8010 5.033104 40.00763 60.00748
29.55000 309.1316 5.029970 39.99097 59.99807
29.58334 309.4630 5.027165 40.00770 60.00582
29.61666 309.7975 5.024454 39.99437 59.99618
29.65000 310.1310 5.021958 39.99880 59.99536
29.68333 310.4664 5.019440 40.00876 60.00972
29.71667 310.8007 5.016828 39.99506 59.98635
29.75000 311.1325 5.013996 40.00363 60.00351
29.78333 311.4649 5.011132 39.99742 60.00212
29.81667 311.7974 5.008176 40.00718 60.00037
29.85000 312.1302 5.005474 39.99310 59.99238
29.88334 312.4638 5.002817 39.99568 60.00645
29.91666 312.8002 5.000244 40.00091 59.99954
29.95000 313.1330 4.997395 40.00387 60.00216
29.98334 313.4642 4.994410 40.00409 59.99774
30.01666 313.7950 4.991396 39.99496 59.99400
30.05000 314.1282 4.988537 39.99660 60.00974
30.08334 314.4622 4.985990 40.00834 60.00026
30.11666 314.7944 4.983240 39.99469 59.99078
30.15000 315.1240 4.979934 39.99484 59.99874
30.18333 315.4614 4.977743 40.01150 60.00222
30.21667 315.7940 4.975074 40.00502 60.01066
30.25000 316.1250 4.971822 39.99111 59.99149
30.28333 316.4575 4.968912 40.00381 59.99702
30.31667 316.7909 4.966309 39.99123 59.99645
30.35000 317.1241 4.963508 40.00170 60.00336
30.38334 317.4580 4.960776 40.00563 59.99921
30.41666 317.7912 4.957926 39.99228 60.00732
30.45000 318.1243 4.955120 40.01639 60.00606
30.48334 318.4570 4.952252 39.98248 59.98729
30.51666 318.7896 4.949417 40.00126 59.99986
30.55000 319.1223 4.946656 40.01160 60.01356
30.58334 319.4558 4.943966 39.99844 60.00466
30.61666 319.7920 4.941355 39.99650 59.99526
30.65000 320.1240 4.938610 39.99384 60.00056
30.68333 320.4560 4.935608 40.00600 59.99649
30.71667 320.7880 4.932652 39.99416 59.99328
30.75000 321.1192 4.929794 40.00367 60.00108
30.78333 321.4520 4.927227 39.99100 59.99448
30.81667 321.7875 4.924724 40.00578 60.00774
30.85000 322.1218 4.922116 39.99426 59.99285
30.88334 322.4537 4.919150 40.01744 60.02000
30.91666 322.7882 4.916474 39.99512 59.99620
30.95000 323.1248 4.914187 39.99106 59.98274
30.98334 323.4575 4.911610 40.00190 59.99916
31.01666 323.7878 4.908576 40.00142 60.00262
31.05000 324.1193 4.905731 40.00329 60.01028
31.08334 324.4500 4.902977 39.98465 59.98010
31.11666 324.7842 4.900459 40.01956 60.01378
31.15000 325.1190 4.898220 40.00482 60.00585
31.18333 325.4520 4.895656 39.97983 59.98970
31.21667 325.7851 4.892939 40.02258 60.01021
31.25000 326.1199 4.890522 39.98476 59.99000
31.28333 326.4554 4.888314 40.00283 60.00287
31.31667 326.7917 4.886028 40.00772 60.00806
31.35000 327.1266 4.883653 39.99609 59.99668
31.38334 327.4589 4.881140 39.99276 59.99568
31.41666 327.7924 4.878572 40.00445 60.00202
31.45000 328.1228 4.875961 39.99509 59.99474
31.48334 328.4529 4.873282 40.00847 60.01494
31.51666 328.7836 4.870856 39.99548 59.99570
31.55000 329.1162 4.868735 39.98697 59.98171
31.58334 329.4506 4.866667 39.99978 60.00662
31.61666 329.7817 4.864224 40.00650 59.99742
31.65000 330.1142 4.861804 40.01510 60.01712
31.68333 330.4526 4.860279 39.99737 59.99659
31.71667 330.7881 4.858410 39.98266 60.00004
31.75000 331.1227 4.856296 40.01834 59.99502
31.78333 331.4579 4.854111 39.99090 59.99476
31.81667 331.7878 4.851742 40.00980 60.00464
31.85000 332.1205 4.849541 39.98040 59.99498
31.88334 332.4608 4.848606 40.01572 60.00678
31.91666 332.7898 4.846206 40.00738 60.00175
31.95000 333.1223 4.844028 39.98852 59.98889
31.98334 333.4593 4.842812 40.00928 60.01163
32.01666 333.7905 4.840554 39.99030 59.98706
32.05000 334.1206 4.838452 39.99920 60.00883
32.08333 334.4556 4.837021 39.99754 59.99816
32.11666 334.7851 4.834871 40.00594 60.00755
32.15000 335.1170 4.833063 40.00609 59.99967
32.18334 335.4514 4.831802 39.99826 59.99665
32.21667 335.7858 4.830454 39.99070 60.00771
32.25000 336.1235 4.829146 39.99705 59.99049
32.28333 336.4618 4.828054 40.00090 59.99474
32.31666 336.7968 4.826468 39.99994 60.00676
32.35000 337.1322 4.824996 40.01240 60.00830
32.38334 337.4646 4.823382 39.98994 59.98550
32.41667 337.7928 4.821362 40.00381 60.01094
32.45000 338.1234 4.819797 39.99984 59.98849
32.48334 338.4524 4.818246 40.00451 60.01396
32.51666 338.7809 4.816628 39.99294 59.99384
32.55000 339.1135 4.815672 39.99285 59.99926
32.58333 339.4490 4.814798 39.99747 59.99570
32.61666 339.7830 4.813547 40.01402 60.00820
32.65000 340.1156 4.812027 39.99008 59.99086
32.68334 340.4479 4.810776 40.00892 60.01136
32.71667 340.7862 4.810196 39.99555 59.99629
32.75000 341.1228 4.809354 40.00305 60.00359
32.78333 341.4563 4.807970 39.99480 59.98555
32.81666 341.7926 4.807121 40.00025 60.00666
32.85000 342.1284 4.806283 40.01006 60.01526
32.88334 342.4621 4.805244 39.99106 59.98819
32.91667 342.7937 4.803953 40.00848 59.99859
32.95000 343.1239 4.802870 39.98582 59.99136
32.98334 343.4553 4.801531 40.01030 60.00892
33.01666 343.7906 4.800900 40.00321 59.99737
33.05000 344.1265 4.800460 40.00748 60.00488
33.08333 344.4617 4.799800 39.98561 59.99674
33.11666 344.7924 4.798496 39.99713 59.99190
33.15000 345.1250 4.797348 39.99906 60.00384
33.18334 345.4604 4.796953 40.00190 60.00260
33.21667 345.7932 4.796075 39.99822 59.99221
33.25000 346.1277 4.795242 39.99992 60.00628
33.28333 346.4605 4.794520 40.01276 60.00844
33.31666 346.7933 4.793488 39.99590 59.99470
33.35000 347.1268 4.792920 39.99885 60.00482
33.38334 347.4620 4.792328 40.00608 59.99414
33.41667 347.7979 4.791948 39.99486 60.00732
33.45000 348.1312 4.791040 39.99722 59.98605
33.48334 348.4616 4.789810 39.99988 60.00226
33.51666 348.7920 4.788730 39.99112 60.01022
33.55000 349.1220 4.787882 40.01170 60.00137
33.58333 349.4557 4.787459 39.99554 59.99276
33.61666 349.7928 4.787450 40.00041 59.99320
33.65000 350.1272 4.786721 39.99828 60.00694
33.68334 350.4639 4.786340 40.00816 60.00374
33.71667 350.7990 4.785712 39.99102 59.99522
33.75000 351.1290 4.784717 40.00803 60.00626
33.78333 351.4569 4.783309 40.00433 59.99050
33.81666 351.7952 4.783339 39.99059 60.01130
33.85000 352.1280 4.783078 40.00246 59.99478
33.88334 352.4586 4.782070 40.00259 59.99735
33.91667 352.7965 4.781744 40.00012 60.00406
33.95000 353.1325 4.781691 39.99155 59.99472
33.98334 353.4641 4.780582 39.99988 59.99337
34.01666 353.7953 4.779724 40.00237 60.00657
34.05000 354.1234 4.778708 39.99737 59.99940
34.08333 354.4576 4.778233 40.01062 60.00554
34.11666 354.7918 4.777830 39.98797 59.99230
34.15000 355.1239 4.777058 40.00464 59.99861
34.18334 355.4568 4.776340 39.99712 60.00951
34.21667 355.7906 4.775981 40.00942 59.99612
34.25000 356.1278 4.775716 40.00096 60.00412
34.28333 356.4628 4.775360 39.99550 59.98668
34.31666 356.7961 4.774582 39.99313 60.01146
34.35000 357.1270 4.773566 40.00860 59.99812
34.38334 357.4644 4.773340 39.99988 59.99582
34.41667 357.8020 4.773605 39.99988 60.00347
34.45000 358.1324 4.772481 39.99416 59.99387
34.48334 358.4625 4.771414 40.00622 60.00278
34.51666 358.7898 4.770276 39.99221 60.00351
34.55000 359.1215 4.769549 40.00050 60.00286
34.58333 359.4580 4.769697 40.00212 59.99728
34.61666 359.7930 4.769392 40.00118 59.99121
34.65000 360.1292 4.769087 40.00412 60.00635
34.68334 360.4632 4.768511 39.99435 60.00470
34.71667 360.7966 4.767691 40.00183 59.99589
34.75000 361.1299 4.767154 39.99788 59.99882
34.78333 361.4626 4.766418 40.00002 60.00132
34.81666 361.7941 4.765636 40.00608 60.00430
34.85000 362.1272 4.765156 39.99899 59.99888
34.88334 362.4616 4.764724 39.99958 59.99912
34.91667 362.7949 4.764090 39.99256 59.99830
34.95000 363.1301 4.763792 40.00728 59.99976
34.98334 363.4656 4.763370 40.00157 59.99905
35.01666 363.7993 4.762954 40.00050 60.00568
35.05000 364.1340 4.762250 39.99291 59.99457
35.08333 364.4732 4.762260 40.00625 60.00812
35.11666 364.8065 4.761526 39.99521 59.98367
35.15000 365.1322 4.760277 40.00574 60.01024
35.18334 365.4637 4.759472 39.99526 60.00127
35.21667 365.8078 4.760412 40.00222 59.99678
35.25000 366.1405 4.759580 39.99768 59.99734
35.28333 366.4691 4.758384 40.00443 60.00922
35.31666 366.7950 4.757078 39.98809 59.98744
35.35000 367.1245 4.756126 40.01143 60.00537
35.38334 367.4612 4.756261 39.99328 59.99959
35.41667 367.8015 4.756468 40.00588 60.00378
35.45000 368.1351 4.755880 40.00287 59.99885
35.48334 368.4662 4.754930 39.99481 59.99028
35.51666 368.7940 4.753950 40.00722 60.01193
35.55000 369.1320 4.754028 39.99643 60.00005
35.58333 369.4740 4.754355 39.99416 59.99678
35.61666 369.8156 4.754513 40.01096 60.00404
35.65000 370.1475 4.753396 39.99666 59.99407
35.68334 370.4731 4.751896 39.99949 60.00478
35.71667 370.8010 4.750766 39.99945 59.99720
35.75000 371.1312 4.750040 40.00012 60.00676
35.78333 371.4640 4.749744 40.00055 59.99575
35.81666 371.7974 4.749336 39.99514 59.99242
35.85000 372.1324 4.748876 40.00143 60.00393
35.88334 372.4678 4.748538 40.00533 60.00674
35.91667 372.8040 4.748222 39.99468 59.99732
35.95000 373.1424 4.748198 39.99540 59.99335
35.98334 373.4752 4.747466 40.00500 60.01204
36.01666 373.8070 4.746280 39.99432 59.98620
36.05000 374.1418 4.745947 39.99888 59.99870
36.08333 374.4768 4.745694 40.00537 60.00463
36.11666 374.8093 4.744998 39.99992 60.00984
36.15000 375.1408 4.744280 40.00706 60.00190
36.18334 375.4748 4.743791 39.99808 59.98371
36.21667 375.8089 4.743484 39.99445 60.00389
36.25000 376.1400 4.742770 39.99905 60.00756
36.28333 376.4680 4.741516 39.99847 59.99808
36.31666 376.8016 4.740860 40.00226 60.00079
36.35000 377.1412 4.741373 39.99682 60.00286
36.38334 377.4797 4.741346 40.00440 59.99916
36.41667 377.8183 4.740998 39.99246 59.99336
36.45000 378.1426 4.739191 40.00878 60.01060
36.48334 378.4797 4.738766 39.99224 59.98588
36.51666 378.8159 4.739286 40.01044 60.00295
36.55000 379.1384 4.737270 40.00230 60.00364
36.58333 379.4730 4.736836 39.99244 59.99558
36.61666 379.8119 4.737394 40.00208 59.99615
36.65000 380.1406 4.736316 39.99317 60.00512
36.68334 380.4720 4.735453 40.01073 60.00037
36.71667 380.8091 4.735470 39.99675 60.00006
36.75000 381.1426 4.735039 40.00439 60.00367
36.78333 381.4741 4.734279 39.99664 59.99239
36.81666 381.8071 4.733531 39.99652 59.99563
36.85000 382.1427 4.733295 39.99777 60.00731
36.88334 382.4768 4.732837 40.00430 59.99922
36.91667 382.8062 4.731958 39.99702 59.99942
36.95000 383.1326 4.730648 39.99830 60.00848
36.98334 383.4645 4.730032 40.01063 59.99432
37.01666 383.7987 4.729789 39.99207 60.00180
37.05000 384.1342 4.729708 39.99058 59.99211
37.08333 384.4676 4.729150 40.00515 59.99653
37.11666 384.8016 4.728518 40.00930 60.00652
37.15000 385.1352 4.728018 40.00143 60.00194
37.18334 385.4672 4.727332 39.99998 60.00722
37.21667 385.8030 4.726814 39.99067 59.98850
37.25000 386.1383 4.726668 40.00012 59.99634
37.28333 386.4734 4.726290 39.99868 60.00438
37.31666 386.8091 4.725969 40.00472 60.00456
37.35000 387.1432 4.725344 40.00254 59.99590
37.38334 387.4734 4.724553 40.00314 60.00428
37.41667 387.8063 4.723974 39.98848 59.99698
37.45000 388.1342 4.723161 39.99734 60.00676
37.48334 388.4619 4.721954 40.00015 59.99322
37.51666 388.7953 4.721813 40.01018 59.99982
37.55000 389.1294 4.721533 40.00550 60.00648
37.58333 389.4685 4.721496 39.98655 60.00450
37.61666 389.8065 4.721365 40.01125 59.99108
37.65000 390.1428 4.720806 39.99903 60.00852
37.68334 390.4732 4.719946 39.99135 59.98668
37.71667 390.7995 4.718522 40.00832 60.01157
37.75000 391.1290 4.717690 39.98116 59.98650
37.78333 391.4638 4.717619 40.01436 60.01559
37.81666 391.7992 4.717431 39.99331 60.00070
37.85000 392.1347 4.717030 40.00455 59.99082
37.88334 392.4681 4.716424 39.99758 59.99465
37.91667 392.7992 4.715684 39.99660 60.00476
37.95000 393.1322 4.714962 40.00527 60.00890
37.98334 393.4630 4.714511 39.99424 59.99994
38.01666 393.7941 4.713650 40.00622 60.00250
38.05000 394.1326 4.713754 40.00460 59.98759
38.08333 394.4674 4.713318 40.00632 60.00760
38.11666 394.8004 4.712354 39.99137 60.00264
38.15000 395.1345 4.711982 40.01000 59.99047
38.18334 395.4704 4.711664 39.98936 60.00085
38.21667 395.8060 4.711328 40.00720 60.00261
38.25000 396.1386 4.710556 39.98834 60.00704
38.28333 396.4725 4.710022 40.00961 59.99801
38.31666 396.8050 4.709476 39.99548 59.99910
38.35000 397.1350 4.708579 40.00866 59.99968
38.38334 397.4685 4.708134 39.99698 60.00242
38.41667 397.8027 4.707817 39.99898 59.99924
38.45000 398.1362 4.707284 39.99805 59.98385
38.48334 398.4687 4.706643 40.00437 60.01209
38.51666 398.8015 4.705836 39.99662 59.99645
38.55000 399.1347 4.705458 40.00200 60.00930
38.58333 399.4694 4.705094 39.98234 59.98287
38.61666 399.8046 4.704837 40.01855 60.00489
38.65000 400.1381 4.704270 40.00168 60.00307
38.68334 400.4712 4.703750 39.99777 60.00004
38.71667 400.8054 4.703362 39.99174 60.00137
38.75000 401.1390 4.702988 40.01295 60.00766
38.78333 401.4735 4.702470 39.98168 59.98116
38.81666 401.8074 4.701916 40.01112 60.01771
38.85000 402.1397 4.701352 40.00020 59.98418
38.88334 402.4730 4.700733 39.99542 60.01693
38.91667 402.8044 4.700125 39.99800 59.99761
38.95000 403.1396 4.699747 39.99137 59.98781
38.98334 403.4712 4.699174 40.00534 60.00343
39.01666 403.8032 4.698503 39.99414 60.00188
39.05000 404.1345 4.697834 40.02164 60.00999
39.08333 404.4680 4.697324 39.99953 59.99050
39.11666 404.8000 4.696808 40.00347 59.99682
39.15000 405.1319 4.696060 39.99422 60.00200
39.18334 405.4683 4.696040 39.99315 60.00181
39.21667 405.8028 4.695652 39.99959 59.98977
39.25000 406.1372 4.695176 39.98956 60.00687
39.28333 406.4702 4.694516 40.00698 59.99730
39.31666 406.8004 4.693600 40.00056 60.00768
39.35000 407.1331 4.692998 39.99602 59.99214
39.38334 407.4672 4.692587 39.99795 60.00348
39.41667 407.8017 4.692317 40.01785 60.00566
39.45000 408.1372 4.692006 39.98536 60.00266
39.48334 408.4726 4.691632 40.01800 59.99169
39.51666 408.8086 4.691269 39.98560 60.00938
39.55000 409.1428 4.690781 40.00398 60.00618
39.58333 409.4750 4.690201 39.99222 59.98330
39.61666 409.8076 4.689634 39.99734 60.01150
39.65000 410.1398 4.689117 40.01725 59.99756
39.68334 410.4732 4.688632 39.98534 59.99214
39.71667 410.8045 4.687914 39.99495 59.99968
39.75000 411.1354 4.687266 40.01297 60.01458
39.78333 411.4691 4.686929 39.99974 59.99084
39.81666 411.8075 4.686860 40.01072 60.00760
39.85000 412.1431 4.686535 39.98380 59.98836
39.88334 412.4748 4.685802 40.00634 59.99990
39.91667 412.8072 4.685160 40.01000 60.00902
39.95000 413.1389 4.684644 39.99294 59.99820
39.98334 413.4733 4.684196 39.98337 59.98250
40.01666 413.8076 4.683810 40.00520 60.01730
40.05000 414.1392 4.683178 40.01304 59.99895
40.08333 414.4699 4.682328 39.99972 59.99046
40.11666 414.8034 4.681836 39.99145 60.02101
40.15000 415.1387 4.681680 40.01122 59.97891
40.18334 415.4724 4.681205 39.98634 60.01100
40.21667 415.8060 4.680493 40.01261 59.98862
40.25000 416.1410 4.680164 39.98130 59.99600
40.28333 416.4756 4.679890 40.02116 60.01030
40.31666 416.8119 4.679521 39.99880 60.00418
40.35000 417.1451 4.678994 39.99044 59.98713
40.38334 417.4757 4.678124 40.00964 60.01858
40.41667 417.8086 4.677516 39.98815 59.98040
40.45000 418.1406 4.677076 40.00900 60.00115
40.48334 418.4769 4.676724 39.99128 60.01914
40.51666 418.8104 4.676468 39.99512 59.99551
40.55000 419.1425 4.675789 40.01567 60.00118
40.58333 419.4756 4.675123 39.99506 60.00220
40.61666 419.8086 4.674593 39.99953 59.97880
40.65000 420.1422 4.674160 40.00967 60.01640
40.68334 420.4770 4.673662 39.98195 59.98531
40.71667 420.8153 4.673671 40.01432 60.01138
40.75000 421.1514 4.673504 39.99788 59.98916
40.78333 421.4828 4.672719 39.99751 60.01790
40.81666 421.8165 4.671920 39.98773 59.98992
40.85000 422.1490 4.671478 39.99850 60.00790
40.88334 422.4802 4.670690 40.02150 59.99875
40.91667 422.8128 4.670281 40.00085 59.99118
40.95000 423.1440 4.669672 39.97561 59.99326
40.98334 423.4734 4.668842 40.01955 60.02058
41.01666 423.8056 4.668180 39.98057 59.98204
41.05000 424.1420 4.668193 40.01660 60.01174
41.08333 424.4786 4.667900 39.98279 59.99524
41.11666 424.8124 4.667298 40.01807 60.00700
41.15000 425.1498 4.667171 39.98320 59.98769
41.18334 425.4825 4.666638 40.00211 60.01295
41.21667 425.8170 4.665836 40.01084 59.99409
41.25000 426.1507 4.665447 40.00863 60.00401
41.28333 426.4792 4.664424 39.98904 60.00115
41.31666 426.8146 4.664404 39.99963 59.99798
41.35000 427.1490 4.664058 39.99191 59.98972
41.38334 427.4806 4.663238 40.01330 60.00957
41.41667 427.8139 4.662787 39.99627 60.00572
41.45000 428.1463 4.662286 40.00756 59.98535
41.48334 428.4800 4.661825 39.98445 60.00999
41.51666 428.8117 4.661071 40.01714 59.98688
41.55000 429.1440 4.660523 39.98405 60.00012
41.58333 429.4794 4.660248 40.01357 60.00942
41.61666 429.8153 4.660013 39.98635 59.99649
41.65000 430.1489 4.659320 40.01355 59.99834
41.68334 430.4815 4.658700 39.99257 60.01066
41.71667 430.8156 4.658230 40.01026 59.99989
41.75000 431.1512 4.657784 39.98367 59.98388
41.78333 431.4906 4.657950 40.00690 60.01338
41.81666 431.8234 4.657497 40.00218 59.98933
41.85000 432.1526 4.656166 39.98783 60.01187
41.88334 432.4840 4.655612 40.00041 59.99800
41.91667 432.8154 4.655224 40.01576 60.00015
41.95000 433.1447 4.654282 39.98998 59.99111
41.98334 433.4770 4.653804 39.99640 60.00492
42.01666 433.8106 4.653604 40.01058 59.99360
42.05000 434.1439 4.653052 40.00225 60.01376
42.08333 434.4813 4.652672 39.98962 59.99761
42.11666 434.8176 4.652515 40.00685 59.99782
42.15000 435.1498 4.651607 39.99866 60.00532
42.18334 435.4818 4.650714 39.99582 59.99566
42.21667 435.8154 4.650350 39.99956 60.00338
42.25000 436.1503 4.649829 40.00705 59.99778
42.28333 436.4831 4.649330 39.99230 59.99281
42.31666 436.8160 4.648506 40.00024 60.01630
42.35000 437.1498 4.648026 39.99728 59.99124
42.38334 437.4846 4.647778 39.99685 59.99001
42.41667 437.8168 4.647022 40.01230 60.00490
42.45000 438.1480 4.646156 39.99065 59.99766
42.48334 438.4802 4.645598 40.00534 60.00212
42.51666 438.8194 4.645519 40.00882 59.99592
42.55000 439.1586 4.645607 39.98471 60.01280
42.58333 439.4941 4.645053 40.00787 60.00072
42.61666 439.8270 4.644210 39.99584 59.98906
42.65000 440.1585 4.643584 40.00554 60.00140
42.68334 440.4924 4.642936 39.99153 59.99576
42.71667 440.8254 4.642631 40.00030 60.00055
42.75000 441.1560 4.641440 40.00494 60.01769
42.78333 441.4878 4.640902 40.00473 59.99878
42.81666 441.8187 4.640070 39.98942 59.99406
42.85000 442.1528 4.639656 39.99640 60.00320
42.88334 442.4894 4.639444 40.01636 59.98628
42.91667 442.8242 4.639011 39.99743 60.00990
42.95000 443.1598 4.638391 40.00050 60.00537
42.98334 443.4918 4.637808 40.00110 59.99238
43.01666 443.8241 4.636938 39.99456 60.00481
43.05000 444.1570 4.636346 39.99226 59.99113
43.08333 444.4908 4.635881 40.02018 60.00542
43.11666 444.8196 4.634787 39.97967 59.99500
43.15000 445.1520 4.634204 40.01262 60.00464
43.18334 445.4886 4.633994 39.99662 59.99041
43.21667 445.8250 4.633594 40.00365 60.00402
43.25000 446.1610 4.632998 39.99588 60.00871
43.28333 446.4938 4.632230 39.99678 59.98911
43.31666 446.8268 4.631442 40.00996 59.99942
43.35000 447.1611 4.630805 39.99439 60.01349
43.38334 447.4929 4.629947 40.00799 59.99744
43.41667 447.8248 4.629294 39.99834 60.00468
43.45000 448.1613 4.629020 39.99362 59.99961
43.48334 448.4976 4.628763 39.99366 59.99326
43.51666 448.8326 4.628317 40.01265 59.99756
43.55000 449.1661 4.627559 40.00246 60.00410
43.58333 449.4944 4.626394 39.99728 60.00020
43.61666 449.8243 4.625422 39.99829 59.99640
43.65000 450.1584 4.624914 40.00038 60.00630
43.68334 450.4924 4.624424 39.99322 59.98887
43.71667 450.8259 4.623900 40.00059 60.01596
43.75000 451.1626 4.623416 40.00904 59.98828
43.78333 451.4956 4.622609 39.98613 60.00984
43.81666 451.8272 4.621680 40.01117 59.99512
43.85000 452.1612 4.620988 39.99750 59.99950
43.88334 452.4987 4.620859 39.99188 60.00166
43.91667 452.8297 4.619697 40.01528 59.99696
43.95000 453.1638 4.619089 39.99267 59.99744
43.98334 453.4988 4.618519 39.99224 59.98870
44.01666 453.8348 4.618086 40.00110 60.02203
44.05000 454.1710 4.617640 39.99128 59.98778
44.08333 454.5058 4.617078 40.01169 60.00562
44.11666 454.8348 4.615914 40.00373 59.99062
44.15000 455.1638 4.614644 40.00130 59.99669
44.18334 455.4990 4.614450 40.00481 60.00720
44.21667 455.8313 4.613636 39.98079 59.99566
44.25000 456.1644 4.612972 40.01289 59.99871
44.28333 456.4968 4.612152 40.00198 60.00586
44.31666 456.8317 4.611308 40.00534 60.01342
44.35000 457.1650 4.610770 39.99330 59.99619
44.38334 457.4964 4.609738 39.99000 59.99102
44.41667 457.8273 4.608566 40.01018 60.00473
44.45000 458.1616 4.607929 40.00517 59.99740
44.48334 458.4973 4.607626 39.98991 59.99563
44.51666 458.8284 4.606456 39.99710 59.98906
44.55000 459.1597 4.605367 40.00711 60.01276
44.58333 459.4946 4.604718 39.99793 60.00481
44.61666 459.8308 4.604332 40.00451 59.98662
44.65000 460.1666 4.603816 39.98809 60.01402
44.68334 460.5008 4.602929 40.01341 60.00297
44.71667 460.8340 4.601978 40.00154 59.99818
44.75000 461.1676 4.601169 39.98782 59.98780
44.78333 461.4996 4.600116 40.01170 60.01347
44.81666 461.8350 4.599494 39.99858 59.99051
44.85000 462.1724 4.599188 39.98736 60.01300
44.88334 462.5038 4.598143 40.00241 59.98121
44.91667 462.8344 4.596850 39.99424 60.01711
44.95000 463.1645 4.595719 40.01418 59.99726
44.98334 463.5000 4.595112 39.98508 59.99258
45.01666 463.8403 4.595132 40.00644 60.00851
45.05000 464.1754 4.594152 40.00524 59.99126
45.08333 464.5084 4.593040 40.00190 60.00558
45.11666 464.8384 4.591870 40.00468 59.98930
45.15000 465.1694 4.590554 39.98613 59.99974
45.18334 465.5019 4.589633 40.01006 60.00220
45.21667 465.8360 4.588933 39.98474 60.00586
45.25000 466.1697 4.588008 40.01728 59.99390
45.28333 466.5020 4.586803 39.99210 60.00226
45.31666 466.8362 4.585787 39.99559 60.00672
45.35000 467.1704 4.584918 39.99709 59.99812
45.38334 467.5030 4.583818 40.01275 60.00686
45.41667 467.8364 4.582636 39.99999 59.98999
45.45000 468.1719 4.581770 40.00310 60.00782
45.48334 468.5074 4.580816 39.98553 59.99824
45.51666 468.8440 4.580116 39.99874 60.00178
45.55000 469.1817 4.579318 40.00774 59.98756
45.58333 469.5162 4.578403 40.00645 60.00684
45.61666 469.8498 4.577336 39.99667 60.00698
45.65000 470.1837 4.576244 40.00437 59.98862
45.68334 470.5147 4.575125 39.99330 60.00838
45.71667 470.8444 4.573590 40.00045 59.99893
45.75000 471.1750 4.572367 39.99928 60.00459
45.78333 471.5085 4.571456 39.99711 59.98289
45.81666 471.8395 4.570104 40.00830 60.00689
45.85000 472.1742 4.569190 39.99057 60.00346
45.88334 472.5090 4.568225 39.99898 59.99215
45.91667 472.8475 4.567554 40.01006 60.00656
45.95000 473.1790 4.565850 40.00050 59.99620
45.98334 473.5156 4.564754 40.00322 59.99780
46.01666 473.8498 4.563310 39.99222 60.01148
46.05000 474.1837 4.561871 40.01221 59.99564
46.08333 474.5189 4.560532 39.97761 60.00074
46.11666 474.8536 4.559010 40.01220 60.00130
46.15000 475.1944 4.558344 40.00314 59.98670
46.18334 475.5284 4.556974 39.98538 60.01272
46.21667 475.8596 4.555278 40.01050 59.98644
46.25000 476.1940 4.554030 40.00532 59.99863
46.28333 476.5250 4.552290 39.99808 60.01746
46.31666 476.8598 4.550853 39.98847 59.98752
46.35000 477.1973 4.549836 39.99734 60.00706
46.38334 477.5352 4.548794 40.00087 59.99106
46.41667 477.8711 4.547320 40.00314 60.00340
46.45000 478.2038 4.545594 40.00815 59.99142
46.48334 478.5406 4.544325 39.99280 60.00824
46.51666 478.8763 4.543160 40.00290 59.99840
46.55000 479.2080 4.541031 39.99145 60.01380
46.58333 479.5429 4.539922 40.00539 59.98896
46.61666 479.8722 4.537826 40.00330 60.00772
46.65000 480.2044 4.536050 39.99287 59.99550
46.68334 480.5367 4.534270 40.00359 60.00294
46.71667 480.8702 4.532680 40.01129 60.00191
46.75000 481.2045 4.530989 39.99237 60.00074
46.78333 481.5425 4.529740 39.99416 60.00240
46.81666 481.8758 4.527860 40.01016 60.00000
46.85000 482.2092 4.526124 39.99774 59.99891
46.88334 482.5428 4.524174 40.00300 60.00666
46.91667 482.8760 4.522152 39.99036 59.97996
46.95000 483.2110 4.520752 39.99562 60.00723
46.98334 483.5459 4.518992 40.00928 60.00432
47.01666 483.8784 4.516867 39.99150 60.00787
47.05000 484.2134 4.514942 40.01570 59.99117
47.08333 484.5461 4.512817 39.99645 60.00012
47.11666 484.8778 4.510644 40.00062 59.99649
47.15000 485.2104 4.508512 40.00394 59.99890
47.18334 485.5431 4.506303 39.98922 59.99752
47.21667 485.8778 4.504412 40.00201 60.00880
47.25000 486.2135 4.502556 39.98917 60.00022
47.28333 486.5446 4.500019 40.00540 59.99040
47.31666 486.8757 4.497586 40.00853 60.01087
47.35000 487.2086 4.495110 40.00148 59.99966
47.38334 487.5428 4.493027 40.00090 60.00300
47.41667 487.8768 4.490719 39.99991 59.99172
47.45000 488.2111 4.488523 39.98691 59.99418
47.48334 488.5432 4.485706 40.01010 60.01543
47.51666 488.8768 4.483322 39.99680 59.98438
47.55000 489.2097 4.480682 40.00098 60.00972
47.58333 489.5446 4.478197 40.00350 59.99106
47.61666 489.8774 4.475482 39.99600 59.99746
47.65000 490.2102 4.472709 39.99475 60.00866
47.68334 490.5444 4.469902 40.00980 59.99271
47.71667 490.8822 4.467719 40.00287 60.01176
47.75000 491.2142 4.464750 39.99539 59.98760
47.78333 491.5441 4.461459 39.99934 59.99982
47.81666 491.8771 4.458474 40.00362 60.01036
47.85000 492.2086 4.455545 39.99178 59.99149
47.88334 492.5438 4.452846 40.00486 59.99788
47.91667 492.8776 4.449868 39.99584 59.99768
47.95000 493.2084 4.446520 39.99244 60.00620
47.98334 493.5390 4.443020 40.00662 60.00700
48.01666 493.8698 4.439552 40.00888 60.00219
48.05000 494.2016 4.436402 39.99360 59.99282
48.08333 494.5360 4.433137 40.00906 60.00414
48.11666 494.8734 4.430191 39.99007 59.99098
48.15000 495.2070 4.427084 40.00027 60.01565
48.18334 495.5434 4.423500 39.99664 59.98995
48.21667 495.8794 4.420586 40.01520 60.00374
48.25000 496.2096 4.416483 39.99329 59.99969
48.28333 496.5340 4.411984 39.99768 60.00342
48.31666 496.8666 4.408498 40.01129 59.99836
48.35000 497.1991 4.405044 39.98247 59.98716
48.38334 497.5386 4.401891 39.99619 59.99851
48.41667 497.8739 4.398658 40.01135 60.00674
48.45000 498.2050 4.394348 39.99925 59.99202
48.48334 498.5351 4.390003 39.99571 60.01274
48.51666 498.8694 4.386336 40.01278 59.99568
48.55000 499.2010 4.382507 39.98667 59.99446
48.58333 499.5354 4.378685 40.00007 60.01155
48.61666 499.8640 4.374196 39.99963 59.99926
48.65000 500.1908 4.369272 39.99724 59.99074
48.68334 500.5220 4.365142 40.00294 60.00066
48.71667 500.8672 4.362530 40.01051 60.00722
48.75000 501.2080 4.359382 40.00205 60.00760
48.78333 501.5394 4.354549 39.98767 59.99475
48.81666 501.8686 4.349681 40.00555 59.98980
48.85000 502.1967 4.345113 39.98938 60.00816
48.88334 502.5190 4.339781 40.01404 59.99589
48.91667 502.8492 4.335208 39.98697 60.00646
48.95000 503.1821 4.331506 40.00187 59.98814
48.98334 503.5141 4.326754 40.00814 60.01474
49.01666 503.8456 4.322300 39.99373 59.99305
49.05000 504.1820 4.317997 40.01239 60.00488
49.08333 504.5243 4.314609 39.98470 59.98819
49.11666 504.8629 4.310612 40.00416 60.00743
49.15000 505.1952 4.305871 40.00806 60.00051
49.18334 505.5306 4.301526 39.99725 59.99638
49.21667 505.8652 4.297608 39.99762 59.99726
49.25000 506.1894 4.292334 40.00780 60.00580
49.28333 506.5197 4.287628 39.99050 59.99291
49.31666 506.8554 4.283847 39.99934 60.00371
49.35000 507.1876 4.279424 40.01019 60.00425
49.38334 507.5231 4.275269 39.98721 59.99625
49.41667 507.8586 4.271280 40.01199 60.00886
49.45000 508.1903 4.266758 39.99668 59.99450
49.48334 508.5211 4.262156 39.99036 60.00206
49.51666 508.8534 4.257761 40.00359 60.00110
49.55000 509.1840 4.253172 40.00470 60.00850
49.58333 509.5160 4.248710 40.00350 59.98352
49.61666 509.8484 4.244348 39.99053 59.99620
49.65000 510.1813 4.240019 39.99890 60.01580
49.68334 510.5181 4.235969 40.00604 59.99660
49.71667 510.8550 4.231965 40.00126 59.99470
49.75000 511.1914 4.228110 40.00048 60.00502
49.78333 511.5244 4.223890 40.00273 60.00218
49.81666 511.8610 4.219934 39.99248 59.98484
49.85000 512.1956 4.216006 39.99199 60.01325
49.88334 512.5281 4.211789 40.00974 59.99861
49.91667 512.8588 4.207710 39.99614 59.98814
49.95000 513.1870 4.202880 39.99574 60.00356
49.98334 513.5104 4.197968 40.01023 60.00015
50.01666 513.8367 4.193261 40.00281 59.99913
50.05000 514.1728 4.189883 39.99100 60.00226
50.08333 514.5111 4.186502 39.99626 59.99912
50.11666 514.8522 4.183094 40.00209 60.00616
50.15000 515.1892 4.179288 40.00339 59.99242
50.18334 515.5191 4.174574 40.00628 59.99946
50.21667 515.8504 4.170462 39.99546 59.99761
50.25000 516.1828 4.166635 39.99706 60.01903
50.28333 516.5176 4.163028 39.99785 59.98598
50.31666 516.8515 4.159504 40.00806 59.99963
50.35000 517.1847 4.155513 39.99343 60.01147
50.38334 517.5165 4.151762 40.00062 59.99436
50.41667 517.8518 4.148271 40.00011 60.00626
50.45000 518.1896 4.145110 39.99136 59.99141
50.48334 518.5261 4.141934 40.00355 59.99676
50.51666 518.8576 4.137929 40.01930 60.00161
50.55000 519.1884 4.134172 39.99340 60.00986
50.58333 519.5226 4.130724 39.98738 59.98974
50.61666 519.8613 4.127930 40.01532 60.00329
50.65000 520.1944 4.124785 39.98624 60.00156
50.68334 520.5238 4.120660 40.00106 59.99020
50.71667 520.8530 4.116892 40.00360 59.99465
50.75000 521.1891 4.114185 39.99456 60.01926
50.78333 521.5259 4.111492 40.00988 59.99321
50.81666 521.8639 4.108920 39.98930 60.01826
50.85000 522.2002 4.105930 40.00044 59.98371
50.88334 522.5331 4.102741 40.01575 59.99750
50.91667 522.8622 4.099156 39.98888 60.00102
50.95000 523.1932 4.095975 40.00586 60.00406
50.98334 523.5216 4.092624 40.00354 59.99560
51.01666 523.8513 4.089340 39.99768 60.00355
51.05000 524.1810 4.086210 40.00287 59.99856
51.08333 524.5136 4.083112 39.98778 59.99622
51.11666 524.8502 4.080668 40.00565 59.99926
51.15000 525.1866 4.078104 40.00667 60.00252
51.18334 525.5276 4.076028 40.00275 59.99780
51.21667 525.8650 4.073909 39.99525 59.99463
51.25000 526.1997 4.071106 39.98977 60.00871
51.28333 526.5341 4.068558 39.99463 59.99240
51.31666 526.8616 4.065228 40.00425 60.00632
51.35000 527.1899 4.062264 40.00950 60.01092
51.38334 527.5215 4.059955 40.00719 59.99528
51.41667 527.8584 4.058190 39.99642 60.00469
51.45000 528.1975 4.056612 39.98766 59.98968
51.48333 528.5332 4.054387 39.99926 60.00127
51.51667 528.8644 4.051714 39.99432 59.99780
51.55000 529.1967 4.049372 40.01103 59.99516
51.58333 529.5302 4.047246 40.00626 60.00508
51.61666 529.8622 4.044946 39.98847 59.99526
51.65000 530.1943 4.042664 40.00284 60.01087
51.68334 530.5261 4.040494 40.00036 60.00200
51.71667 530.8590 4.038428 40.00755 59.99791
51.75000 531.1937 4.036514 39.99238 60.00178
51.78333 531.5273 4.034483 39.99652 59.98644
51.81666 531.8630 4.032622 40.00798 60.00968
51.85000 532.1988 4.030933 40.00320 59.99895
51.88334 532.5356 4.029419 39.99644 59.99207
51.91667 532.8710 4.027614 39.99650 60.00018
51.95000 533.2036 4.025716 40.00476 60.01050
51.98333 533.5386 4.024145 39.99184 59.99785
52.01667 533.8682 4.022242 40.00609 59.99298
52.05000 534.2006 4.020432 40.00437 60.00513
52.08333 534.5339 4.018942 39.99075 60.00503
52.11666 534.8695 4.017410 40.00455 59.99468
52.15000 535.2039 4.015965 39.99549 59.99640
52.18334 535.5364 4.014178 40.00981 59.99938
52.21667 535.8738 4.012970 40.00098 59.99540
52.25000 536.2078 4.011536 39.99558 60.00720
52.28333 536.5437 4.010250 40.00209 59.99938
52.31666 536.8820 4.009450 39.99032 60.01080
52.35000 537.2210 4.008772 40.01114 59.99726
52.38334 537.5515 4.007000 39.99242 59.99215
52.41667 537.8762 4.004552 39.99803 59.99707
52.45000 538.2042 4.002863 40.00813 59.99950
52.48332 538.5352 4.001594 39.99137 60.00918
52.51668 538.8672 4.000300 40.01252 59.98943
52.55000 539.2016 3.998945 39.99394 60.00900
52.58332 539.5390 3.997997 39.99375 59.99686
52.61666 539.8747 3.996918 39.99544 60.00596
52.65000 540.2100 3.995666 40.01672 59.98642
52.68334 540.5435 3.994388 39.99365 60.01626
52.71668 540.8790 3.993360 40.00160 59.98889
52.75000 541.2120 3.992156 39.99850 59.99944
52.78332 541.5455 3.991048 40.00070 60.01550
52.81666 541.8783 3.989989 39.99508 59.98337
52.85000 542.2129 3.988892 40.00292 60.00840
52.88334 542.5478 3.988074 40.00408 59.99438
52.91668 542.8843 3.987450 39.99857 60.00649
52.95000 543.2185 3.986425 39.99489 59.99549
52.98332 543.5498 3.985066 39.99652 60.00551
53.01668 543.8822 3.983834 40.00828 59.98968
53.05000 544.2145 3.982938 39.99615 60.01152
53.08332 544.5484 3.981954 39.99563 59.99956
53.11666 544.8799 3.980861 39.99448 59.99355
53.15000 545.2115 3.979696 40.00552 60.00789
53.18334 545.5472 3.978801 40.01260 59.99160
53.21668 545.8838 3.978370 39.99385 59.99170
53.25000 546.2197 3.977530 40.00538 60.00674
53.28332 546.5532 3.976486 39.99136 60.00000
53.31666 546.8866 3.975617 40.00734 59.99924
53.35000 547.2193 3.974908 39.99569 59.99912
53.38334 547.5533 3.974013 39.99635 60.00121
53.41668 547.8865 3.973072 40.00372 59.99788
53.45000 548.2188 3.972396 40.00596 60.01070
53.48332 548.5512 3.971520 39.99517 59.99604
53.51668 548.8875 3.970938 40.00718 59.99464
53.55000 549.2227 3.970456 39.99678 59.99965
53.58332 549.5538 3.969300 40.00040 60.00363
53.61666 549.8858 3.968191 39.99584 59.99656
53.65000 550.2195 3.967468 40.00390 60.00382
53.68334 550.5554 3.966906 39.99356 59.99882
53.71668 550.8926 3.966438 39.99798 60.00110
53.75000 551.2269 3.965650 40.00309 59.99830
53.78332 551.5618 3.964954 40.00958 60.00493
53.81666 551.8946 3.964326 39.98008 60.00006
53.85000 552.2271 3.963528 40.01259 59.99236
53.88334 552.5610 3.962988 39.99886 59.99826
53.91668 552.8958 3.962572 40.00054 60.00307
53.95000 553.2300 3.962322 40.00787 60.00930
53.98332 553.5616 3.961520 39.98813 59.99600
54.01668 553.8922 3.960694 40.00622 60.00254
54.05000 554.2240 3.959967 39.99240 59.99244
54.08332 554.5563 3.959399 40.00890 59.99746
54.11666 554.8915 3.958855 39.99466 60.00354
54.15000 555.2239 3.957995 39.99800 59.99895
54.18334 555.5606 3.957767 39.99876 59.99648
54.21668 555.8979 3.957758 40.00985 60.00078
54.25000 556.2305 3.956967 39.99842 60.00453
54.28332 556.5632 3.956334 39.99997 59.99938
54.31666 556.8940 3.955638 39.99225 59.99962
54.35000 557.2280 3.955310 40.00320 60.00582
54.38334 557.5612 3.954996 39.99486 59.98430
54.41668 557.8937 3.954400 40.00669 60.01209
54.45000 558.2275 3.953842 39.99160 60.00335
54.48332 558.5601 3.953247 40.00359 59.99586
54.51668 558.8922 3.952520 40.00065 60.00098
54.55000 559.2254 3.951902 40.00265 59.99516
54.58332 559.5610 3.951852 39.99622 60.00324
54.61666 559.8988 3.951788 40.00885 60.00625
54.65000 560.2335 3.951476 39.99620 59.99283
54.68334 560.5674 3.951117 40.00494 60.00150
54.71668 560.9016 3.950790 39.99750 60.00313
54.75000 561.2331 3.950261 39.99858 60.00213
54.78332 561.5622 3.949526 39.98961 59.99547
54.81666 561.8946 3.949062 40.00373 60.00806
54.85000 562.2288 3.948710 40.00260 59.99060
54.88334 562.5632 3.948246 39.99878 60.00824
54.91668 562.8976 3.947830 39.99938 59.98694
54.95000 563.2326 3.947494 40.00294 60.00870
54.98332 563.5676 3.947286 40.00552 59.99288
55.01668 563.9000 3.946856 39.98981 60.00229
55.05000 564.2348 3.946622 40.00186 60.00164
55.08332 564.5702 3.946460 39.99465 60.00195
55.11666 564.9058 3.946352 40.01407 59.99539
55.15000 565.2372 3.945715 39.98716 59.99795
55.18334 565.5710 3.945176 40.00998 60.00176
55.21668 565.9048 3.945093 39.99578 59.99549
55.25000 566.2389 3.944688 40.00574 59.99965
55.28332 566.5730 3.944416 40.00344 60.00628
55.31666 566.9078 3.944048 39.99063 60.00566
55.35000 567.2405 3.943654 40.00309 59.99144
55.38334 567.5742 3.943285 39.99185 59.99736
55.41668 567.9114 3.943426 40.00688 60.00361
55.45000 568.2502 3.943760 40.00747 60.00175
55.48332 568.5828 3.943383 39.99214 59.99911
55.51668 568.9152 3.942798 40.00306 59.99729
55.55000 569.2462 3.942392 40.00345 60.01640
55.58332 569.5774 3.942019 39.99539 59.99300
55.61666 569.9100 3.941676 39.99922 59.99044
55.65000 570.2410 3.941402 39.99938 60.00340
55.68334 570.5732 3.940894 39.99637 60.00378
55.71668 570.9087 3.940820 40.00641 60.00264
55.75000 571.2439 3.940750 39.99796 59.99528
55.78332 571.5774 3.940305 40.00864 59.99639
55.81666 571.9133 3.940196 39.99457 60.00059
55.85000 572.2486 3.940330 39.99143 60.00171
55.88334 572.5824 3.940097 40.00268 59.99680
55.91668 572.9121 3.939625 40.00506 60.00370
55.95000 573.2434 3.939150 39.99133 59.99712
55.98332 573.5769 3.939191 40.00611 59.99843
56.01668 573.9120 3.939398 39.99350 60.01059
56.05000 574.2476 3.939426 40.01533 59.99611
56.08332 574.5786 3.938948 39.99547 59.99290
56.11666 574.9105 3.938664 40.00461 60.01068
56.15000 575.2407 3.938270 39.98972 59.99432
56.18334 575.5696 3.937788 40.00115 59.99824
56.21668 575.9100 3.938485 39.99691 60.01000
56.25000 576.2454 3.938694 40.00562 59.99474
56.28332 576.5748 3.937918 39.99603 59.99919
56.31666 576.9057 3.937256 39.99882 60.00371
56.35000 577.2378 3.936636 39.99942 59.98776
56.38334 577.5719 3.936558 40.00876 60.01010
56.41668 577.9106 3.937160 39.99820 60.00355
56.45000 578.2465 3.936998 40.00310 59.98642
56.48332 578.5820 3.936826 39.98636 60.00326
56.51668 578.9160 3.936767 39.99938 60.00646
56.55000 579.2490 3.936614 40.01238 59.99360
56.58332 579.5813 3.936356 40.00126 60.00498
56.61666 579.9118 3.936168 39.99103 60.00601
56.65000 580.2453 3.936075 39.99878 59.99731
56.68334 580.5792 3.936008 40.00175 59.99730
56.71668 580.9129 3.935981 39.99522 60.00006
56.75000 581.2470 3.935859 40.00037 59.99278
56.78332 581.5791 3.935430 39.99937 60.00370
56.81666 581.9116 3.935155 40.00846 60.00066
56.85000 582.2492 3.935374 40.00276 59.99982
56.88334 582.5832 3.935559 39.99709 60.00113
56.91668 582.9190 3.935578 39.99986 59.99510
56.95000 583.2555 3.935941 39.99328 59.99780
56.98332 583.5860 3.935330 40.00354 60.01221
57.01668 583.9174 3.934882 40.00246 59.98984
57.05000 584.2476 3.934597 39.99609 60.00278
57.08332 584.5779 3.934561 40.00288 59.99615
57.11666 584.9120 3.934572 40.00454 60.00526
57.15000 585.2460 3.934330 39.99939 59.99963
57.18334 585.5832 3.934361 40.00381 60.00176
57.21668 585.9178 3.934448 39.99088 59.99970
57.25000 586.2516 3.934308 40.01207 60.00280
57.28332 586.5862 3.934443 39.98679 59.99944
57.31666 586.9188 3.934201 40.00205 59.99684
57.35000 587.2506 3.933748 40.00427 59.99750
57.38334 587.5818 3.933656 39.99160 59.99524
57.41668 587.9156 3.933480 40.00190 60.00690
57.45000 588.2550 3.933875 39.99931 59.99910
57.48332 588.5889 3.934112 40.01270 60.00811
57.51668 588.9199 3.933554 39.99758 59.99512
57.55000 589.2522 3.933254 39.99382 59.99840
57.58332 589.5863 3.933348 40.00375 59.99910
57.61666 589.9205 3.933422 39.99180 59.99781
57.65000 590.2550 3.933502 40.00978 60.00315
57.68334 590.5910 3.933634 40.00097 59.99953
57.71668 590.9268 3.934058 40.00388 60.00235
57.75000 591.2555 3.933179 39.99120 60.00118
57.78332 591.5861 3.932887 39.99750 59.99576
57.81666 591.9186 3.932841 39.99675 60.00493
57.85000 592.2520 3.932760 40.00032 59.99343
57.88334 592.5844 3.932695 40.00603 60.00148
57.91668 592.9194 3.932606 40.00240 60.00220
57.95000 593.2551 3.932895 39.99702 60.00056
57.98332 593.5891 3.932792 40.00336 59.99346
58.01668 593.9239 3.932830 39.99411 60.00288
58.05000 594.2560 3.932891 39.99730 59.99690
58.08332 594.5889 3.932887 39.99812 60.00860
58.11666 594.9224 3.932705 39.99976 60.00000
58.15000 595.2535 3.932400 40.00216 59.99484
58.18334 595.5891 3.932370 40.00764 59.99464
