CLOSED
Version	1.0
Language	English
Run	1
RunSerial	824
Instrument	TGA Q500 V6.7 Build 203
Module	TGA
InstSerial	0500-0499
Operator	at615
File	C:\TA\Data\TGA\ak794\anders\ZIF8cellulose rods sample 4.001
FurnaceType	Standard
Sample	ZIF8 cellulose rods in air s4
Size	4.82900	mg
ProcName
Method	
Comment	
Xcomment	Pan: Platinum
Xcomment	Gas1: Air
Xcomment	Gas2: Air
Xcomment	Balance Gas: Air 40.0 ml/min
Xcomment	Sample Gas: Air 60.0 ml/min
Text	Cellulose rods and zif8 degradation in air. Sample 4
Kcell	1.00000
TempCal	3	pts	20.00	20.00,364.00	356.00,776.00	770.00
InstCalDate	Weight Date 2013-03-01 10:10:44
Controls	Gas 2  Event Off  Sampling 2.0
Nsig	5
Sig1	Time (min)
Sig2	Temperature (°C)
Sig3	Weight (mg)
Sig4	Balance Purge Flow (mL/min)
Sig5	Sample Purge Flow (mL/min)
AirCoolTime	20.0 min
AutoAnalysis	Off
MacroFile
Date	2013-03-12
Time	09:48:15
OrgMethod	1: Ramp 10.00 °C/min to 600.00 °C
OrgFile	C:\Users\AIM_Group\Desktop\post doc cambridge\Students files\Internships\Anders\anders tga\anders\ZIF8cellulose rods sample 4.001
0.01618334 15.91824 4.828526 40.00746 60.00072
0.01666667 15.92999 4.827926 40.00878 59.99070
0.05000000 15.96954 4.827945 39.97903 59.99899
0.08333334 16.03725 4.827420 40.00845 60.00315
0.1166666 16.13331 4.827590 40.01412 60.01006
0.1500000 16.24963 4.827315 39.99587 59.98882
0.1833334 16.38982 4.827378 39.99028 59.99426
0.2166667 16.54698 4.827378 40.00136 60.02268
0.2500000 16.72131 4.826984 39.99156 59.98771
0.2833333 16.91218 4.827128 40.01637 59.98754
0.3166666 17.11548 4.826663 39.99175 60.01042
0.3500000 17.33044 4.826564 40.00028 59.99324
0.3833333 17.55687 4.826363 39.99242 59.99899
0.4166666 17.79375 4.825870 39.99738 59.99761
0.4500000 18.03853 4.825862 40.00701 60.00979
0.4833333 18.29136 4.825194 39.99986 59.98828
0.5166666 18.55032 4.824976 40.00769 60.01872
0.5500000 18.81850 4.824450 39.99290 59.99038
0.5833332 19.09230 4.824034 39.99806 60.00508
0.6166668 19.37049 4.823692 39.99394 59.99339
0.6500000 19.65437 4.822935 40.01664 60.00664
0.6833334 19.94509 4.822642 39.99460 60.00276
0.7166666 20.23703 4.822026 40.00830 59.99426
0.7500000 20.53478 4.821661 39.98555 59.99855
0.7833334 20.83424 4.821452 40.00266 60.00392
0.8166668 21.13804 4.821087 40.00206 60.00120
0.8500000 21.44394 4.820876 39.99889 59.99145
0.8833332 21.75223 4.820339 40.01275 59.99966
0.9166668 22.06318 4.819663 39.99597 60.00981
0.9500000 22.37604 4.818998 39.99087 59.99382
0.9833334 22.69092 4.818759 40.00942 59.99786
1.016667 23.00859 4.818402 39.99939 60.00650
1.050000 23.32732 4.817144 39.98990 59.98945
1.083334 23.64680 4.816431 39.99528 60.00109
1.116667 23.96607 4.815828 40.00950 60.00280
1.150000 24.28825 4.815216 40.00143 59.99976
1.183333 24.61124 4.814601 39.99839 60.00066
1.216667 24.93429 4.813728 39.99789 59.99895
1.250000 25.25798 4.813144 39.99558 60.00485
1.283333 25.58142 4.812444 40.00772 60.00146
1.316667 25.90545 4.811798 40.00026 60.00037
1.350000 26.23094 4.811063 40.00704 60.00022
1.383333 26.55584 4.810402 39.98882 59.99110
1.416666 26.88120 4.810190 39.99513 60.00484
1.450000 27.20588 4.809738 40.00382 59.99488
1.483334 27.53152 4.809290 40.00900 60.01028
1.516666 27.85594 4.808472 39.99490 59.98958
1.550000 28.18143 4.807371 40.00088 60.01936
1.583334 28.50560 4.806666 39.99930 59.99862
1.616666 28.83138 4.806406 40.00325 59.98253
1.650000 29.15540 4.805930 39.99510 60.00028
1.683333 29.47905 4.804714 39.99774 60.01103
1.716667 29.80442 4.803700 40.00789 60.00672
1.750000 30.12749 4.803429 39.99396 59.98278
1.783333 30.45175 4.802915 40.00024 60.00488
1.816667 30.77555 4.802790 40.00845 59.99548
1.850000 31.09863 4.801756 39.99019 60.00764
1.883334 31.42118 4.801250 39.99446 59.99129
1.916666 31.74530 4.800650 40.01279 60.00309
1.950000 32.06831 4.799700 39.99664 60.00694
1.983334 32.39104 4.798758 40.00272 59.98611
2.016666 32.71280 4.798161 39.99516 60.01180
2.050000 33.03614 4.797934 40.00704 60.00257
2.083333 33.35894 4.796955 39.99820 60.01581
2.116666 33.68132 4.796308 39.99954 59.98308
2.150000 34.00354 4.795736 39.99248 59.99356
2.183334 34.32492 4.794928 40.00522 59.99888
2.216667 34.64723 4.794336 39.99475 60.00160
2.250000 34.96942 4.793895 40.00220 60.01171
2.283333 35.29160 4.793189 40.00007 59.99179
2.316666 35.61348 4.792498 39.99760 59.99988
2.350000 35.93547 4.791688 40.00356 59.99914
2.383334 36.25796 4.791390 39.99933 59.99488
2.416667 36.58103 4.791219 39.99836 60.00813
2.450000 36.90300 4.790657 40.00814 60.00243
2.483334 37.22460 4.789784 39.99042 59.99734
2.516666 37.54566 4.788680 39.99900 59.99832
2.550000 37.86738 4.787882 40.00045 59.99731
2.583333 38.19124 4.787778 40.00006 59.99450
2.616666 38.51472 4.787748 40.00946 60.00590
2.650000 38.83779 4.786937 40.00007 60.00126
2.683334 39.15948 4.786040 39.99560 60.00018
2.716667 39.48285 4.785339 39.99728 59.99776
2.750000 39.80688 4.785084 40.00624 59.99782
2.783333 40.12995 4.784741 39.99408 59.99998
2.816666 40.45222 4.784168 39.99582 60.00794
2.850000 40.77658 4.783748 40.01033 59.99304
2.883334 41.10015 4.783381 39.99717 60.00696
2.916667 41.42409 4.782274 39.99807 59.99275
2.950000 41.74680 4.781816 40.00372 60.00916
2.983334 42.07121 4.781458 40.00116 59.98728
3.016666 42.39696 4.781134 39.98791 60.01020
3.050000 42.71922 4.779761 40.00138 59.99004
3.083333 43.04404 4.778435 40.00744 60.01011
3.116666 43.36950 4.777584 39.99578 60.00443
3.150000 43.69293 4.777219 40.00336 59.99356
3.183334 44.01936 4.776982 40.00492 59.99639
3.216667 44.34519 4.776264 39.99342 59.99434
3.250000 44.67004 4.775456 39.99320 60.00479
3.283333 44.99684 4.775166 40.00039 60.00257
3.316666 45.32340 4.774796 40.01070 60.00270
3.350000 45.64866 4.774446 39.99675 60.00040
3.383334 45.97502 4.773666 40.01076 59.99574
3.416667 46.30234 4.773367 39.98244 59.99820
3.450000 46.62918 4.772988 40.00609 60.00205
3.483333 46.95618 4.772309 39.99713 60.00192
3.516667 47.28246 4.771752 40.00419 59.99654
3.550000 47.61007 4.771469 40.00402 59.99668
3.583333 47.93750 4.770822 39.99023 60.00805
3.616666 48.26489 4.770306 40.01269 59.99882
3.650000 48.59224 4.769872 39.99218 60.00726
3.683334 48.92089 4.769467 39.99700 59.98824
3.716667 49.24913 4.769092 40.00276 60.00488
3.750000 49.57759 4.768592 40.00671 59.99633
3.783333 49.90572 4.768160 39.99135 60.00624
3.816666 50.23544 4.767838 39.99919 59.99468
3.850000 50.56306 4.767442 39.99814 60.00480
3.883334 50.89250 4.766870 40.00135 60.00452
3.916667 51.21976 4.766422 40.00253 59.99388
3.950000 51.55045 4.765988 40.00710 59.99364
3.983333 51.88100 4.765861 39.98590 59.99900
4.016667 52.20961 4.765314 40.00292 60.00012
4.050000 52.53998 4.764644 40.01210 59.99932
4.083334 52.86872 4.764126 39.99580 59.99780
4.116667 53.19880 4.763746 39.99483 60.00299
4.150000 53.53097 4.763702 40.00317 59.99634
4.183334 53.86156 4.763379 40.01050 59.99770
4.216667 54.19140 4.763057 39.99920 60.01560
4.250000 54.52300 4.762668 40.00266 59.99592
4.283333 54.85271 4.762231 39.98090 60.00363
4.316666 55.18596 4.762036 40.00144 59.98985
4.350000 55.51664 4.761802 40.01019 59.99788
4.383333 55.84749 4.761176 39.98947 60.00550
4.416666 56.17738 4.760380 40.01125 59.99474
4.450000 56.50810 4.760266 39.99067 60.01990
4.483333 56.83880 4.759762 39.99950 59.98549
4.516667 57.17132 4.759606 40.00942 59.99459
4.550000 57.50445 4.759700 40.00635 59.99683
4.583334 57.83644 4.759406 39.98000 60.00361
4.616667 58.16744 4.758858 40.01459 60.01438
4.650000 58.49842 4.758191 39.99811 59.99758
4.683334 58.83008 4.758172 39.98925 59.99606
4.716667 59.16232 4.757846 39.99548 60.00994
4.750000 59.49360 4.757481 40.02142 59.99021
4.783333 59.82497 4.757215 39.98436 60.00576
4.816666 60.15736 4.756888 40.00589 59.99650
4.850000 60.48940 4.756548 40.01150 59.99140
4.883333 60.82018 4.755739 40.00188 60.00700
4.916666 61.15070 4.754950 39.97981 59.99580
4.950000 61.48492 4.755272 40.01412 59.99905
4.983333 61.81884 4.755285 40.00682 60.01778
5.016667 62.15112 4.755110 39.98471 59.99424
5.050000 62.48376 4.755044 39.99256 59.99211
5.083334 62.81502 4.754168 39.99953 59.99818
5.116667 63.14761 4.753762 40.00248 59.99550
5.150000 63.47962 4.753276 39.99810 60.01456
5.183334 63.81296 4.753296 40.01208 59.98270
5.216667 64.14668 4.753298 39.98760 60.00398
5.250000 64.47890 4.752873 40.00132 59.99798
5.283332 64.81204 4.752540 39.99984 60.01084
5.316666 65.14475 4.752222 40.00244 59.99553
5.350000 65.47780 4.752019 40.01155 59.99954
5.383332 65.81000 4.751334 39.99781 59.99537
5.416666 66.14344 4.751072 39.99578 60.00530
5.450000 66.47590 4.750924 39.99398 59.99913
5.483332 66.80987 4.750918 40.00391 59.99693
5.516668 67.14304 4.750670 40.00050 60.00762
5.550000 67.47666 4.750326 40.00837 59.99286
5.583334 67.81090 4.750172 39.99841 60.00352
5.616668 68.14365 4.749858 39.99632 60.00471
5.650000 68.47714 4.749582 39.99726 59.98684
5.683334 68.81022 4.749146 39.99548 60.00500
5.716668 69.14490 4.748874 40.00740 60.01340
5.750000 69.47734 4.748700 40.00302 59.98007
5.783332 69.81171 4.748392 39.99532 60.01552
5.816666 70.14378 4.748280 39.99400 59.99407
5.850000 70.47779 4.747983 40.01812 59.99137
5.883332 70.81122 4.747707 39.99572 60.01664
5.916666 71.14250 4.747054 39.99530 59.99843
5.950000 71.47486 4.746630 39.99375 60.00056
5.983332 71.80803 4.746332 40.00744 60.00242
6.016668 72.14109 4.746046 39.98656 59.99319
6.050000 72.47421 4.745550 40.00926 60.00186
6.083334 72.80820 4.745284 39.99652 59.99192
6.116668 73.14206 4.745198 39.99510 60.01250
6.150000 73.47638 4.745070 40.01370 59.98470
6.183334 73.81012 4.744836 39.99059 60.01418
6.216668 74.14313 4.744597 40.00469 59.99249
6.250000 74.47765 4.744455 40.00464 59.99205
6.283332 74.80974 4.743674 39.99689 60.00379
6.316666 75.14313 4.743197 40.00016 60.00412
6.350000 75.47602 4.743011 40.00400 60.00390
6.383332 75.81059 4.742802 39.99512 59.99631
6.416666 76.14400 4.742630 39.99590 60.00058
6.450000 76.47866 4.742338 40.00642 60.00094
6.483332 76.81220 4.741976 39.98985 60.00570
6.516668 77.14490 4.741370 40.00598 59.99531
6.550000 77.47939 4.741297 39.99681 59.99895
6.583334 77.81162 4.740772 40.00803 60.00142
6.616668 78.14600 4.740362 39.99890 59.99844
6.650000 78.48071 4.740078 39.99776 59.99614
6.683334 78.81096 4.739074 39.99952 60.00391
6.716666 79.14497 4.738860 39.99757 59.99184
6.750000 79.47999 4.739039 39.99937 60.00834
6.783334 79.81430 4.738810 40.00910 59.99856
6.816666 80.14825 4.738129 39.99236 60.00212
6.850000 80.48222 4.737907 39.99889 60.00118
6.883332 80.81625 4.737324 40.01138 59.99419
6.916666 81.14998 4.736950 39.99586 60.00159
6.950000 81.48361 4.736688 39.99834 60.00268
6.983332 81.81946 4.736484 40.00363 60.00078
7.016668 82.15369 4.736100 39.99059 59.99637
7.050000 82.48824 4.735877 40.00009 60.00830
7.083334 82.82210 4.735466 40.00102 59.99481
7.116668 83.15655 4.734920 40.00110 60.00268
7.150000 83.48861 4.734031 39.99956 59.98837
7.183334 83.82069 4.733347 40.00034 60.00451
7.216666 84.15259 4.732636 39.99640 60.00559
7.250000 84.48457 4.731848 39.99878 59.99982
7.283334 84.81895 4.731756 40.00854 59.99746
7.316666 85.15449 4.731574 39.99890 59.99428
7.350000 85.48876 4.731117 39.99804 60.00700
7.383332 85.82280 4.730636 39.99418 60.00000
7.416666 86.15636 4.730041 40.00429 60.00092
7.450000 86.49038 4.729494 40.00153 59.99195
7.483332 86.82364 4.728931 40.00002 59.99991
7.516668 87.15808 4.728354 40.00225 60.00288
7.550000 87.49274 4.727974 39.99444 60.00482
7.583334 87.82453 4.727228 39.99761 60.00305
7.616668 88.15754 4.726276 40.00640 59.99440
7.650000 88.49112 4.725811 40.00010 60.00637
7.683334 88.82486 4.725526 40.00128 59.99011
7.716666 89.15958 4.724924 39.99934 59.99752
7.750000 89.49347 4.724291 39.99254 60.00674
7.783334 89.82731 4.723534 40.01091 59.99684
7.816666 90.15894 4.722592 39.99772 59.98974
7.850000 90.49171 4.721886 40.00015 60.00395
7.883332 90.82524 4.721172 39.99408 60.01397
7.916666 91.15841 4.720837 40.00126 59.99328
7.950000 91.49298 4.720300 40.00166 60.00307
7.983332 91.82618 4.719541 40.00326 60.00078
8.016666 92.15951 4.718681 39.99681 59.99281
8.050000 92.49181 4.717766 40.00244 60.00504
8.083332 92.82531 4.717152 39.99490 59.99950
8.116668 93.15830 4.716463 39.99958 60.00344
8.150000 93.49071 4.715513 39.99782 59.99652
8.183334 93.82238 4.714532 40.00944 60.00485
8.216666 94.15766 4.713938 39.99410 59.99180
8.250000 94.49085 4.713194 40.01274 60.00626
8.283334 94.82441 4.712261 39.98741 59.99765
8.316666 95.15732 4.711319 40.01061 60.00949
8.350000 95.49168 4.710698 39.99286 59.98818
8.383332 95.82414 4.709534 39.99170 59.99937
8.416668 96.15754 4.708579 40.01445 59.99670
8.450000 96.49272 4.708150 39.98770 60.00864
8.483334 96.82547 4.707187 40.00419 60.00886
8.516666 97.15814 4.705951 40.00224 59.98755
8.550000 97.49109 4.704674 39.98844 60.00613
8.583332 97.82499 4.703858 40.01408 59.99497
8.616668 98.15805 4.702992 39.98684 60.00299
8.650000 98.49212 4.702037 40.00430 59.99717
8.683334 98.82468 4.700840 40.00249 60.00450
8.716666 99.15855 4.699768 39.99526 60.00020
8.750000 99.49103 4.698944 40.00170 59.99670
8.783334 99.82574 4.697898 39.99988 60.00246
8.816666 100.1589 4.696822 40.01090 59.99806
8.850000 100.4926 4.695793 39.98837 59.99913
8.883332 100.8263 4.694704 40.00218 59.99612
8.916668 101.1602 4.693516 40.01436 60.01221
8.950000 101.4913 4.692070 39.99534 59.99350
8.983334 101.8250 4.691019 39.99006 59.98904
9.016666 102.1594 4.689921 40.01000 60.00800
9.050000 102.4927 4.688835 39.98496 60.00237
9.083332 102.8263 4.687434 40.00872 60.00156
9.116668 103.1593 4.686194 39.98942 59.99971
9.150000 103.4941 4.685034 40.00615 60.00095
9.183334 103.8270 4.683572 40.00867 59.99916
9.216666 104.1597 4.681959 40.00094 59.99121
9.250000 104.4924 4.680540 39.99196 60.00892
9.283334 104.8248 4.679140 40.00414 59.99193
9.316666 105.1593 4.677783 39.98887 60.00456
9.350000 105.4924 4.676436 40.01047 59.99739
9.383332 105.8246 4.675056 40.00454 60.00621
9.416668 106.1604 4.673764 39.99813 59.99276
9.450000 106.4932 4.672200 39.99914 60.00937
9.483334 106.8250 4.670379 39.99306 60.00142
9.516666 107.1572 4.668754 40.01080 59.98842
9.550000 107.4918 4.667266 39.99611 59.99940
9.583332 107.8257 4.665791 40.00156 59.99874
9.616668 108.1601 4.664282 39.99744 59.99829
9.650000 108.4928 4.662696 39.99050 60.01098
9.683334 108.8266 4.660960 40.01263 59.99120
9.716666 109.1604 4.659207 40.00082 60.00933
9.750000 109.4923 4.657288 40.00589 59.98863
9.783334 109.8254 4.655386 39.97615 60.01926
9.816666 110.1581 4.653472 40.02398 59.98114
9.850000 110.4903 4.651600 39.97748 60.01518
9.883332 110.8234 4.649652 40.00479 59.99992
9.916668 111.1564 4.647813 40.01661 59.99528
9.950000 111.4890 4.645968 39.99733 59.99030
9.983334 111.8218 4.644009 39.97956 60.01277
10.01667 112.1554 4.641966 40.01050 60.00239
10.05000 112.4889 4.639942 39.99143 60.00276
10.08333 112.8244 4.638082 40.00008 59.99820
10.11667 113.1585 4.636171 40.01446 59.98814
10.15000 113.4928 4.633950 40.00194 59.99450
10.18333 113.8246 4.631630 40.00260 59.99905
10.21667 114.1582 4.629344 39.99804 60.01781
10.25000 114.4934 4.627291 40.00546 59.98154
10.28333 114.8282 4.625160 39.98206 60.01606
10.31667 115.1614 4.622566 40.00861 59.99890
10.35000 115.4940 4.619952 39.99741 59.98940
10.38333 115.8261 4.617421 39.98692 60.01601
10.41667 116.1592 4.614982 40.01894 59.98156
10.45000 116.4916 4.612600 39.99727 60.00496
10.48333 116.8249 4.610212 39.99750 60.01196
10.51666 117.1592 4.607700 39.99942 59.98124
10.55000 117.4922 4.604872 40.00740 60.00286
10.58333 117.8243 4.602100 39.98526 60.01290
10.61667 118.1567 4.599485 39.99930 60.00103
10.65000 118.4907 4.596872 39.99860 59.98668
10.68334 118.8244 4.594189 40.01980 59.99444
10.71666 119.1572 4.591374 39.98066 60.01713
10.75000 119.4913 4.588453 39.99918 60.01230
10.78334 119.8239 4.585584 40.00240 59.98320
10.81666 120.1563 4.582529 40.00712 59.99087
10.85000 120.4906 4.579358 39.99594 60.00005
10.88333 120.8224 4.576250 39.99964 60.01290
10.91667 121.1551 4.573225 40.01588 59.98770
10.95000 121.4887 4.570218 39.98537 60.01643
10.98334 121.8220 4.567260 40.00228 59.99976
11.01666 122.1559 4.564004 40.00350 59.99265
11.05000 122.4884 4.560596 39.98674 60.00482
11.08333 122.8207 4.557103 40.02039 59.98520
11.11667 123.1530 4.553778 39.99078 60.00610
11.15000 123.4872 4.550422 39.99489 60.00253
11.18334 123.8199 4.547004 40.00217 60.01057
11.21666 124.1546 4.543484 39.99324 59.98848
11.25000 124.4862 4.539890 40.00195 60.00618
11.28334 124.8197 4.536320 39.99722 59.99805
11.31666 125.1547 4.532825 40.01279 60.00371
11.35000 125.4891 4.529320 40.00528 59.98094
11.38333 125.8248 4.525710 39.98968 60.01182
11.41667 126.1601 4.521953 39.99416 60.00141
11.45000 126.4947 4.517975 39.99874 59.99989
11.48334 126.8277 4.513930 40.01728 59.99641
11.51666 127.1611 4.509589 39.98555 60.00361
11.55000 127.4909 4.505197 40.01841 59.99272
11.58333 127.8222 4.500855 39.98728 59.99611
11.61667 128.1531 4.496540 40.00570 60.01712
11.65000 128.4843 4.492102 39.98984 59.99051
11.68334 128.8175 4.487828 40.01361 60.00610
11.71666 129.1508 4.483604 39.97981 60.00472
11.75000 129.4856 4.479331 40.02054 59.99220
11.78334 129.8175 4.474563 39.99626 59.99003
11.81666 130.1522 4.470172 39.99084 60.00689
11.85000 130.4887 4.466287 39.99954 59.99598
11.88333 130.8232 4.461666 40.00800 60.00691
11.91667 131.1559 4.456602 39.99664 60.00176
11.95000 131.4893 4.451672 40.00070 59.99656
11.98334 131.8241 4.446912 40.00327 60.00522
12.01666 132.1572 4.441896 39.99307 59.99431
12.05000 132.4915 4.436930 40.00670 60.00056
12.08333 132.8257 4.432059 39.99882 59.99818
12.11667 133.1593 4.427030 39.99635 60.00235
12.15000 133.4923 4.421469 39.99610 60.00926
12.18334 133.8251 4.416094 40.00286 59.99210
12.21666 134.1587 4.410828 40.00835 59.99326
12.25000 134.4922 4.405370 39.99397 60.01116
12.28334 134.8251 4.399824 40.00366 60.00094
12.31666 135.1591 4.394127 39.99844 59.99414
12.35000 135.4910 4.388464 39.99552 60.00369
12.38333 135.8228 4.382578 39.99955 59.99812
12.41667 136.1568 4.377056 40.01126 59.99500
12.45000 136.4903 4.371340 39.98488 60.00834
12.48334 136.8248 4.365570 40.00431 59.98880
12.51666 137.1592 4.359818 40.00847 60.00474
12.55000 137.4954 4.354054 39.99969 60.00390
12.58333 137.8282 4.347946 39.98821 59.99365
12.61667 138.1605 4.341328 40.00628 60.00482
12.65000 138.4951 4.335312 39.99392 59.99871
12.68334 138.8286 4.329124 40.00400 59.99920
12.71666 139.1613 4.322590 39.99652 60.00068
12.75000 139.4984 4.316372 40.01136 60.00020
12.78334 139.8347 4.310750 40.00009 60.00036
12.81667 140.1649 4.303164 39.98860 59.99308
12.85000 140.4990 4.296585 40.00332 59.99930
12.88333 140.8342 4.290191 40.00832 60.01137
12.91667 141.1658 4.283290 39.99055 59.99676
12.95000 141.4992 4.276474 40.01203 59.99918
12.98334 141.8302 4.269075 39.99312 59.99774
13.01666 142.1621 4.262137 39.99592 59.99861
13.05000 142.4924 4.254834 40.00322 60.00412
13.08333 142.8234 4.247734 39.99533 59.99486
13.11667 143.1559 4.240511 40.00447 60.00176
13.15000 143.4900 4.233481 40.05278 60.00879
13.18333 143.8246 4.226363 39.99790 59.98746
13.21666 144.1591 4.219046 40.00884 60.00660
13.25000 144.4912 4.211290 39.99740 59.99451
13.28334 144.8218 4.203350 39.99774 60.00871
13.31667 145.1562 4.195990 40.00203 59.99406
13.35000 145.4908 4.188601 39.99910 60.00527
13.38333 145.8249 4.180746 40.00090 59.99907
13.41667 146.1595 4.172870 40.00002 59.99504
13.45000 146.4915 4.164864 40.00254 60.00422
13.48334 146.8242 4.156683 39.99082 60.00122
13.51666 147.1557 4.148450 40.00854 60.00190
13.55000 147.4890 4.140303 39.99729 59.99389
13.58333 147.8240 4.132348 40.00864 60.00484
13.61667 148.1596 4.124530 39.99646 59.99365
13.65000 148.4904 4.115978 39.99928 59.99880
13.68333 148.8225 4.107314 39.99528 60.02570
13.71666 149.1541 4.098719 39.99570 59.98068
13.75000 149.4885 4.090280 40.01175 60.00012
13.78334 149.8205 4.081662 39.99726 60.00118
13.81667 150.1532 4.072974 39.99588 59.99920
13.85000 150.4858 4.064407 40.00474 60.00049
13.88333 150.8219 4.056148 39.99920 59.99636
13.91667 151.1548 4.047030 39.99384 60.00602
13.95000 151.4875 4.038179 40.00468 59.99207
13.98334 151.8222 4.029332 40.00096 59.99892
14.01666 152.1528 4.019935 39.99962 60.00159
14.05000 152.4862 4.010920 39.99353 59.99280
14.08333 152.8194 4.001996 40.00022 60.01135
14.11667 153.1520 3.992764 40.00531 59.99220
14.15000 153.4847 3.983393 40.00082 60.01258
14.18333 153.8161 3.974109 39.99602 59.99352
14.21666 154.1498 3.964957 40.00424 60.00200
14.25000 154.4838 3.955758 40.00716 59.99432
14.28334 154.8199 3.946797 40.00012 60.00182
14.31667 155.1546 3.937358 39.98410 60.00150
14.35000 155.4867 3.927466 40.01296 59.99874
14.38333 155.8190 3.917864 39.99555 60.00846
14.41667 156.1505 3.908186 40.00096 59.99902
14.45000 156.4824 3.898594 39.98978 59.99584
14.48334 156.8142 3.888714 40.00275 59.99822
14.51666 157.1462 3.878853 40.00100 60.00288
14.55000 157.4840 3.869934 39.99600 59.99449
14.58333 157.8191 3.860523 40.00320 60.00437
14.61667 158.1506 3.850348 39.99832 59.99537
14.65000 158.4821 3.840239 40.00345 60.00558
14.68333 158.8170 3.830470 39.99713 60.00449
14.71666 159.1517 3.821144 40.00570 59.98779
14.75000 159.4844 3.810970 40.00570 60.00216
14.78334 159.8199 3.801322 39.99708 60.00453
14.81667 160.1510 3.791253 39.99015 60.00544
14.85000 160.4823 3.780864 40.00041 59.98801
14.88333 160.8141 3.770902 40.00898 60.00062
14.91667 161.1463 3.760897 40.00348 59.99674
14.95000 161.4794 3.751050 39.99112 60.00894
14.98334 161.8131 3.741140 40.01042 59.99218
15.01666 162.1468 3.731272 39.99004 60.00943
15.05000 162.4804 3.721332 39.99994 59.99359
15.08333 162.8121 3.711140 40.00717 60.00898
15.11667 163.1437 3.700939 39.99858 59.99784
15.15000 163.4772 3.691065 39.99336 60.00178
15.18333 163.8127 3.681406 40.00944 60.00080
15.21666 164.1465 3.671603 39.99290 59.99479
15.25000 164.4790 3.661550 40.00066 59.99305
15.28334 164.8112 3.651474 39.99148 60.01325
15.31667 165.1461 3.641870 40.01352 59.98874
15.35000 165.4780 3.632024 39.99133 60.00043
15.38333 165.8125 3.622357 40.00592 59.99798
15.41667 166.1489 3.612914 39.99832 60.00574
15.45000 166.4825 3.603216 39.99693 59.99614
15.48334 166.8150 3.593148 39.99945 59.99766
15.51666 167.1463 3.583208 40.00342 60.00174
15.55000 167.4792 3.573632 40.00554 60.00965
15.58333 167.8117 3.564026 39.98887 59.99474
15.61667 168.1456 3.554718 40.00470 59.99224
15.65000 168.4799 3.545139 40.00883 60.00711
15.68333 168.8121 3.535580 40.00388 60.00796
15.71666 169.1437 3.526044 39.99710 59.98638
15.75000 169.4762 3.516575 39.99112 60.01570
15.78334 169.8074 3.507325 39.98908 59.99950
15.81667 170.1397 3.498112 40.00623 59.99869
15.85000 170.4704 3.488851 39.99888 59.98559
15.88333 170.8049 3.479907 40.00630 59.99930
15.91667 171.1390 3.471117 40.00166 60.01487
15.95000 171.4721 3.462204 39.99472 59.99968
15.98334 171.8060 3.453424 39.99356 59.99440
16.01666 172.1400 3.444735 40.01555 60.00066
16.05000 172.4725 3.435926 40.00062 59.99074
16.08334 172.8072 3.427364 39.99644 60.00005
16.11667 173.1406 3.418921 39.99922 59.99672
16.15000 173.4743 3.410388 39.98554 60.01134
16.18333 173.8074 3.402025 40.01042 59.99722
16.21667 174.1404 3.393822 39.99480 60.00270
16.25000 174.4728 3.385646 40.01472 59.99826
16.28333 174.8052 3.377412 40.00645 59.99897
16.31667 175.1369 3.369304 39.98594 60.00349
16.35000 175.4700 3.361536 40.00170 59.98955
16.38333 175.8034 3.353769 39.99110 60.00974
16.41666 176.1356 3.345902 40.01389 59.99855
16.45000 176.4672 3.338306 39.98288 60.01135
16.48334 176.8006 3.330852 40.01754 59.99486
16.51666 177.1328 3.323355 40.00039 59.99911
16.55000 177.4665 3.316076 39.99710 59.98266
16.58334 177.8001 3.308964 39.98561 60.00418
16.61667 178.1344 3.301868 40.00830 60.01931
16.65000 178.4662 3.294700 40.00145 59.99163
16.68333 178.7981 3.287539 39.99461 59.98919
16.71667 179.1322 3.280669 39.99398 60.01563
16.75000 179.4663 3.274058 40.00736 60.00196
16.78333 179.7986 3.267304 40.01050 59.98328
16.81667 180.1290 3.260469 39.99897 60.01430
16.85000 180.4608 3.253833 39.99565 59.99358
16.88333 180.7947 3.247466 39.99588 60.00835
16.91666 181.1276 3.241128 39.99572 60.00168
16.95000 181.4579 3.234580 40.01682 59.99748
16.98334 181.7942 3.228649 39.98650 59.99592
17.01666 182.1290 3.222859 39.99554 60.00324
17.05000 182.4634 3.216885 40.00566 59.98750
17.08334 182.7956 3.210810 40.00330 60.00844
17.11667 183.1301 3.204963 39.99479 59.98844
17.15000 183.4621 3.199148 40.01440 60.00639
17.18333 183.7938 3.193210 39.98404 60.01207
17.21667 184.1258 3.187220 39.99959 59.99030
17.25000 184.4611 3.182078 40.01528 59.99742
17.28333 184.7926 3.176484 39.99718 60.00620
17.31667 185.1259 3.170786 39.99106 59.99382
17.35000 185.4591 3.165354 40.00240 59.99560
17.38333 185.7908 3.159914 39.99502 60.00654
17.41666 186.1206 3.154410 39.99890 60.00518
17.45000 186.4520 3.148985 40.00135 59.99158
17.48334 186.7862 3.143965 40.00340 60.00586
17.51666 187.1204 3.139093 40.00665 60.00230
17.55000 187.4531 3.133935 39.99222 59.99849
17.58334 187.7871 3.128920 40.00768 60.00382
17.61667 188.1221 3.124216 40.00100 59.99843
17.65000 188.4549 3.119271 40.00396 59.98882
17.68333 188.7889 3.114280 39.98366 60.00615
17.71667 189.1217 3.109328 40.01061 59.99184
17.75000 189.4555 3.104563 40.00139 60.00234
17.78333 189.7876 3.099482 39.99619 60.00850
17.81667 190.1195 3.094893 39.99036 59.99812
17.85000 190.4531 3.090262 40.00652 59.99370
17.88333 190.7858 3.085705 39.99588 59.99966
17.91666 191.1200 3.081146 40.00555 60.00312
17.95000 191.4551 3.076678 39.99573 59.99830
17.98334 191.7875 3.072094 39.99896 60.00857
18.01666 192.1194 3.067314 40.00616 59.99213
18.05000 192.4503 3.062660 40.00310 59.99850
18.08334 192.7833 3.058226 39.99147 60.00541
18.11667 193.1151 3.053853 40.00326 59.99807
18.15000 193.4481 3.049339 39.99925 60.00850
18.18333 193.7811 3.044992 40.00212 59.99484
18.21667 194.1127 3.040642 40.00126 59.99993
18.25000 194.4444 3.036137 39.99184 59.99805
18.28333 194.7777 3.031887 40.00456 59.99458
18.31667 195.1122 3.027850 40.00910 60.00720
18.35000 195.4476 3.023859 39.99274 59.99505
18.38333 195.7823 3.019809 40.00088 59.99950
18.41666 196.1166 3.015650 39.99434 59.99945
18.45000 196.4486 3.011188 40.01007 60.00402
18.48334 196.7791 3.006580 39.99710 59.99816
18.51666 197.1160 3.002910 39.99733 60.00575
18.55000 197.4518 2.999286 39.99348 59.99832
18.58334 197.7842 2.995035 40.00368 59.99238
18.61667 198.1191 2.990810 40.00332 59.99771
18.65000 198.4504 2.986674 39.99486 60.01516
18.68333 198.7817 2.982261 40.00769 59.99557
18.71667 199.1161 2.978562 39.99086 60.00085
18.75000 199.4489 2.974580 40.00830 59.99873
18.78333 199.7819 2.970548 39.99656 59.99004
18.81667 200.1151 2.966636 39.99891 60.00865
18.85000 200.4483 2.962576 39.99992 59.99504
18.88333 200.7800 2.958402 40.00227 60.00240
18.91666 201.1110 2.954147 39.99732 59.99813
18.95000 201.4454 2.950485 40.00467 60.00877
18.98334 201.7785 2.946553 39.99812 59.99674
19.01666 202.1097 2.942385 40.00690 59.99617
19.05000 202.4447 2.938646 39.99076 59.99942
19.08334 202.7797 2.935150 40.00801 60.00528
19.11667 203.1115 2.930978 39.99149 59.99314
19.15000 203.4464 2.927174 40.01045 60.00586
19.18333 203.7765 2.923030 39.98589 59.99683
19.21667 204.1088 2.919077 40.01141 60.00560
19.25000 204.4412 2.915152 39.99344 59.99618
19.28333 204.7755 2.911494 39.99475 59.99289
19.31667 205.1102 2.907944 40.00337 60.00239
19.35000 205.4427 2.903850 40.00746 60.01054
19.38333 205.7766 2.899967 39.99578 59.99200
19.41666 206.1104 2.896316 40.00115 60.00404
19.45000 206.4444 2.892440 39.99409 59.99692
19.48334 206.7753 2.888368 40.00853 60.00015
19.51666 207.1077 2.884480 40.00435 59.99838
19.55000 207.4409 2.880756 39.99553 60.00789
19.58334 207.7751 2.877146 39.99277 59.99816
19.61667 208.1098 2.873534 40.00319 59.98762
19.65000 208.4450 2.870061 40.01045 60.00528
19.68333 208.7770 2.866155 39.98803 60.00293
19.71667 209.1106 2.862434 39.99779 59.99929
19.75000 209.4444 2.858797 40.00556 60.00440
19.78333 209.7756 2.854807 39.99158 59.99595
19.81667 210.1085 2.850992 40.00800 60.00412
19.85000 210.4412 2.847384 40.00415 59.99594
19.88333 210.7732 2.843481 39.99140 59.99332
19.91666 211.1066 2.839724 40.00503 60.00560
19.95000 211.4386 2.835794 40.00186 60.00882
19.98334 211.7714 2.832002 40.00004 59.99291
20.01666 212.1056 2.828428 39.99880 60.00838
20.05000 212.4389 2.824596 39.99011 59.99338
20.08334 212.7710 2.820633 40.00720 59.99489
20.11667 213.1034 2.816786 39.99560 60.00736
20.15000 213.4370 2.813002 40.00622 59.99810
20.18333 213.7725 2.809341 40.00744 59.99861
20.21667 214.1063 2.805604 39.99776 60.00211
20.25000 214.4415 2.801554 39.99585 59.99838
20.28333 214.7748 2.797480 39.98961 59.99066
20.31667 215.1075 2.793205 40.01282 60.00550
20.35000 215.4394 2.788906 39.99854 60.00576
20.38333 215.7708 2.784560 40.00201 59.99244
20.41666 216.1043 2.780311 40.00426 60.01021
20.45000 216.4374 2.776147 39.98748 59.98675
20.48334 216.7709 2.771816 39.99746 60.00469
20.51666 217.1065 2.767523 40.01224 60.01158
20.55000 217.4407 2.762950 39.99883 60.00478
20.58334 217.7710 2.757880 39.98700 59.97586
20.61667 218.1015 2.752441 40.00766 60.01756
20.65000 218.4355 2.747038 39.99047 60.00358
20.68333 218.7686 2.740973 40.00065 59.97910
20.71667 219.1035 2.734641 40.01553 60.01670
20.75000 219.4406 2.727917 39.99811 60.00406
20.78333 219.7777 2.721068 39.98781 59.98057
20.81667 220.1097 2.713582 40.00722 60.01411
20.85000 220.4431 2.706174 39.99294 59.98486
20.88333 220.7790 2.698916 40.01152 60.00214
20.91666 221.1124 2.691197 40.00296 60.00351
20.95000 221.4449 2.682908 39.99007 60.00562
20.98334 221.7804 2.674173 39.99500 60.00493
21.01666 222.1142 2.664352 40.01154 59.99438
21.05000 222.4485 2.652688 39.98528 60.00744
21.08334 222.7841 2.638627 40.01447 59.99090
21.11667 223.1220 2.622568 40.00377 60.00302
21.15000 223.4608 2.606604 39.98586 59.99242
21.18333 223.8002 2.592206 40.01648 60.00729
21.21667 224.1372 2.579896 39.99551 59.99736
21.25000 224.4710 2.569214 40.00029 60.00966
21.28333 224.8022 2.559705 39.98828 59.99186
21.31667 225.1305 2.551185 40.00806 59.98960
21.35000 225.4584 2.543532 40.00776 60.01894
21.38333 225.7855 2.536652 39.98096 59.98489
21.41666 226.1122 2.530252 40.01398 60.00720
21.45000 226.4376 2.524115 39.98956 59.99135
21.48334 226.7639 2.518374 39.99740 59.99830
21.51666 227.0895 2.512970 40.02302 60.01604
21.55000 227.4178 2.507960 39.99026 59.99384
21.58334 227.7491 2.503331 39.99553 60.00455
21.61667 228.0804 2.498754 40.00122 59.99492
21.65000 228.4121 2.494534 39.99706 60.00970
21.68333 228.7434 2.490238 40.00710 59.99685
21.71667 229.0740 2.486035 39.99174 59.98618
21.75000 229.4075 2.482216 40.01107 60.00500
21.78333 229.7424 2.478624 39.99776 60.00322
21.81667 230.0772 2.475040 40.00471 60.00264
21.85000 230.4093 2.471278 39.99620 60.00332
21.88333 230.7434 2.467863 39.99582 59.99188
21.91666 231.0763 2.464472 40.00060 59.99993
21.95000 231.4072 2.460922 40.00178 60.00329
21.98334 231.7390 2.457755 39.99966 59.99572
22.01666 232.0758 2.455200 39.98828 60.00211
22.05000 232.4090 2.452200 40.00787 60.01087
22.08334 232.7437 2.449427 40.00468 59.99844
22.11667 233.0788 2.446987 39.99285 59.97960
22.15000 233.4116 2.444096 40.00559 60.01328
22.18333 233.7479 2.441817 40.00292 59.99939
22.21667 234.0800 2.439192 40.00000 60.00276
22.25000 234.4094 2.436177 40.00250 60.00843
22.28333 234.7430 2.433990 39.99093 59.98576
22.31667 235.0766 2.432020 39.99786 60.01096
22.35000 235.4138 2.430096 40.00731 59.99503
22.38333 235.7504 2.428352 39.99353 60.00000
22.41666 236.0837 2.426007 40.01180 59.99815
22.45000 236.4137 2.423580 39.98930 60.00426
22.48334 236.7506 2.421767 39.99691 59.98900
22.51666 237.0844 2.420148 39.99972 59.99816
22.55000 237.4154 2.417764 40.01153 60.01182
22.58334 237.7502 2.416153 39.98518 59.99028
22.61667 238.0829 2.414355 40.00874 60.00069
22.65000 238.4147 2.412347 39.99890 59.99849
22.68333 238.7460 2.410523 39.99942 60.00587
22.71667 239.0782 2.408768 40.00175 60.00274
22.75000 239.4099 2.406955 40.00402 59.99474
22.78333 239.7430 2.405458 40.00026 60.00012
22.81667 240.0765 2.403990 39.99865 60.00000
22.85000 240.4120 2.402566 39.99856 60.01046
22.88333 240.7469 2.401211 39.99460 60.00020
22.91666 241.0830 2.399990 40.00381 59.99700
22.95000 241.4170 2.398330 40.00641 59.99216
22.98334 241.7485 2.396508 39.99380 59.99890
23.01666 242.0830 2.394971 39.99270 59.99980
23.05000 242.4155 2.393457 39.99959 60.00248
23.08334 242.7484 2.392034 40.00672 59.99775
23.11667 243.0805 2.390485 39.99258 59.99563
23.15000 243.4162 2.389375 40.00700 60.00754
23.18333 243.7506 2.388186 39.99548 60.00080
23.21667 244.0838 2.386655 40.00042 59.99737
23.25000 244.4194 2.385476 40.00148 60.00044
23.28333 244.7504 2.383746 40.00459 60.00212
23.31667 245.0856 2.382470 39.99974 59.99965
23.35000 245.4250 2.381871 39.99548 59.99494
23.38333 245.7541 2.380020 40.00322 60.00646
23.41666 246.0854 2.378238 39.99496 59.99560
23.45000 246.4205 2.377203 40.00107 59.99465
23.48334 246.7556 2.375902 40.00026 60.00305
23.51666 247.0867 2.374255 40.00308 60.00886
23.55000 247.4184 2.373002 40.00942 59.99666
23.58334 247.7472 2.371105 39.98680 59.99789
23.61667 248.0822 2.369770 40.01053 60.00102
23.65000 248.4150 2.368717 39.99734 59.99576
23.68333 248.7486 2.367563 39.99678 59.99955
23.71667 249.0850 2.366425 39.99883 60.01151
23.75000 249.4216 2.365410 40.00137 59.99338
23.78333 249.7530 2.363739 39.99919 60.00461
23.81667 250.0840 2.361776 40.00208 59.99718
23.85000 250.4126 2.360054 39.99441 59.99565
23.88333 250.7450 2.358677 40.00564 60.00416
23.91666 251.0773 2.357410 39.99754 59.99076
23.95000 251.4102 2.355936 39.99868 60.01726
23.98334 251.7452 2.354929 40.00375 59.99218
24.01666 252.0801 2.353584 39.99150 59.99922
24.05000 252.4115 2.351950 40.00938 59.99530
24.08334 252.7424 2.350186 39.99978 60.00702
24.11667 253.0860 2.349766 40.00136 59.99260
24.15000 253.4146 2.348134 39.99375 60.00100
24.18333 253.7442 2.345640 40.00161 60.00435
24.21667 254.0760 2.344320 39.99646 59.99193
24.25000 254.4102 2.342916 39.99410 60.00195
24.28333 254.7518 2.342506 40.00489 60.00926
24.31667 255.0881 2.341442 40.00935 59.99911
24.35000 255.4220 2.339541 39.99040 59.99526
24.38333 255.7537 2.337750 40.01195 60.00559
24.41666 256.0871 2.336262 39.99787 59.99203
24.45000 256.4194 2.334703 39.99732 60.00601
24.48334 256.7495 2.332830 39.99933 59.99870
24.51666 257.0818 2.331344 40.00034 59.99387
24.55000 257.4139 2.329812 39.99268 60.00276
24.58334 257.7445 2.328116 40.00196 59.99729
24.61667 258.0763 2.326534 40.00840 60.00974
24.65000 258.4088 2.324852 39.99328 59.99930
24.68333 258.7438 2.323566 39.99404 59.98726
24.71667 259.0782 2.322190 40.00950 60.01332
24.75000 259.4112 2.320544 39.98832 59.99226
24.78333 259.7466 2.319019 40.00361 60.00377
24.81667 260.0803 2.317346 40.00370 59.99855
24.85000 260.4149 2.315879 40.00488 60.00937
24.88333 260.7480 2.314208 39.99336 59.98285
24.91666 261.0829 2.312576 40.00049 60.00709
24.95000 261.4141 2.310784 40.01462 60.00915
24.98334 261.7458 2.308800 39.99136 60.00166
25.01666 262.0781 2.307044 39.98900 59.98450
25.05000 262.4106 2.305444 40.00430 60.00563
25.08334 262.7435 2.303784 40.00182 59.99109
25.11667 263.0760 2.301968 39.99991 60.01207
25.15000 263.4099 2.300314 40.01096 60.00564
25.18333 263.7425 2.298528 39.98355 59.99490
25.21667 264.0754 2.296932 40.01672 60.00370
25.25000 264.4128 2.295532 39.98436 59.98992
25.28333 264.7512 2.294360 40.00261 59.99750
25.31667 265.0858 2.292522 39.99690 59.99946
25.35000 265.4166 2.290135 40.00695 59.99696
25.38333 265.7500 2.288322 40.01251 60.01796
25.41666 266.0838 2.286663 39.98840 59.99944
25.45000 266.4140 2.284634 40.00728 59.99356
25.48334 266.7478 2.282727 39.98536 60.00123
25.51666 267.0804 2.280830 40.00084 60.00560
25.55000 267.4116 2.278780 40.01571 59.98871
25.58334 267.7441 2.276938 39.99708 60.00498
25.61666 268.0775 2.275106 39.98802 59.99519
25.65000 268.4112 2.273396 40.00502 60.01026
25.68333 268.7441 2.271414 40.00223 59.99868
25.71667 269.0776 2.269562 39.99610 59.99320
25.75000 269.4116 2.267608 39.99412 59.98743
25.78333 269.7456 2.265599 40.00694 60.01108
25.81667 270.0791 2.263739 39.99977 59.99944
25.85000 270.4118 2.261775 40.01041 60.00042
25.88334 270.7460 2.259716 39.99452 60.00578
25.91666 271.0784 2.257578 39.99050 59.98855
25.95000 271.4090 2.255242 40.00737 60.01358
25.98334 271.7432 2.253310 39.98988 59.99081
26.01666 272.0790 2.251772 40.01516 60.00988
26.05000 272.4135 2.249806 39.99883 60.00026
26.08334 272.7488 2.247792 39.98910 59.99278
26.11666 273.0804 2.245466 40.01228 59.99711
26.15000 273.4117 2.243175 39.98688 60.00235
26.18333 273.7447 2.240967 40.00131 60.00331
26.21667 274.0771 2.238834 39.99783 59.99921
26.25000 274.4115 2.236762 40.00815 60.00618
26.28333 274.7408 2.234253 40.01038 59.98952
26.31667 275.0726 2.231874 39.99086 60.01461
26.35000 275.4109 2.230346 40.00016 59.99708
26.38334 275.7450 2.228345 39.99822 59.98856
26.41666 276.0771 2.225726 40.00098 59.99812
26.45000 276.4103 2.223345 39.99614 60.00312
26.48334 276.7409 2.220880 40.01468 60.00334
26.51666 277.0741 2.218722 39.98240 59.99534
26.55000 277.4058 2.216404 39.99774 60.00144
26.58334 277.7403 2.214106 40.01008 60.01055
26.61666 278.0732 2.211818 39.99622 59.98819
26.65000 278.4074 2.209556 40.00444 60.00717
26.68333 278.7399 2.207161 40.06072 59.99932
26.71667 279.0726 2.204685 39.99142 59.99505
26.75000 279.4050 2.202161 39.99627 60.00242
26.78333 279.7390 2.199775 40.00031 59.99146
26.81667 280.0720 2.197291 40.00595 60.00718
26.85000 280.4065 2.194891 39.99766 59.99632
26.88334 280.7391 2.192360 40.00843 59.99700
26.91666 281.0722 2.189804 39.98945 60.01134
26.95000 281.4051 2.187219 40.00228 59.99995
26.98334 281.7377 2.184570 40.00685 59.99898
27.01666 282.0708 2.182041 39.99208 59.99062
27.05000 282.4062 2.179597 40.00340 60.00972
27.08334 282.7387 2.177024 40.00647 59.99336
27.11666 283.0715 2.174412 39.99286 59.99708
27.15000 283.4050 2.171760 39.99847 59.99732
27.18333 283.7377 2.168997 40.00142 60.00278
27.21667 284.0731 2.166508 40.00383 60.00824
27.25000 284.4064 2.163970 39.99224 59.98859
27.28333 284.7391 2.160908 40.00191 60.01035
27.31667 285.0728 2.158199 40.00100 59.99169
27.35000 285.4125 2.156160 40.00700 60.00535
27.38334 285.7443 2.153068 40.00070 60.00771
27.41666 286.0787 2.150289 39.99764 59.99800
27.45000 286.4112 2.147426 39.99448 59.98921
27.48334 286.7410 2.144146 40.00118 60.00893
27.51666 287.0686 2.140690 39.99732 59.99816
27.55000 287.4010 2.137888 40.00338 59.99924
27.58334 287.7368 2.135450 40.00526 59.99594
27.61666 288.0748 2.133184 40.00118 60.00337
27.65000 288.4050 2.129778 39.99805 59.99785
27.68333 288.7356 2.126315 39.99990 60.00760
27.71667 289.0706 2.123582 39.99046 59.99480
27.75000 289.4048 2.120645 40.01416 59.99829
27.78333 289.7363 2.117354 39.99026 60.00635
27.81667 290.0715 2.114456 40.00287 59.99482
27.85000 290.4047 2.111481 39.99618 60.00484
27.88334 290.7396 2.108332 39.99711 59.99691
27.91666 291.0768 2.105654 40.00937 59.99906
27.95000 291.4096 2.102280 39.99885 59.99782
27.98334 291.7394 2.098579 39.99025 59.99683
28.01666 292.0720 2.095216 40.00878 60.00140
28.05000 292.4053 2.092158 40.00183 60.00147
28.08334 292.7372 2.089073 39.99600 60.00302
28.11666 293.0682 2.085459 40.00040 60.00061
28.15000 293.4000 2.081877 39.99859 60.00460
28.18333 293.7306 2.078470 39.99680 59.99934
28.21667 294.0635 2.075152 40.00842 59.99375
28.25000 294.3995 2.072112 39.98680 59.99746
28.28333 294.7351 2.069009 40.02048 60.00472
28.31667 295.0697 2.065604 39.99702 59.99972
28.35000 295.4022 2.061868 39.99768 60.00658
28.38334 295.7356 2.058345 39.98713 59.98891
28.41666 296.0690 2.054713 40.01176 59.99824
28.45000 296.4030 2.051355 40.00113 60.00132
28.48334 296.7381 2.048021 39.98674 60.00594
28.51666 297.0732 2.044523 40.00037 60.00513
28.55000 297.4088 2.041264 40.00047 59.99055
28.58334 297.7436 2.037716 40.00326 59.99238
28.61666 298.0786 2.034109 40.00365 60.01682
28.65000 298.4111 2.030213 40.00422 60.00000
28.68333 298.7405 2.026216 40.00091 60.00000
28.71667 299.0712 2.022403 39.99648 59.98328
28.75000 299.4033 2.018716 39.99816 60.00533
28.78333 299.7364 2.014979 40.00052 59.99843
28.81667 300.0681 2.011298 39.99390 60.01892
28.85000 300.4014 2.007575 39.99424 59.99556
28.88334 300.7342 2.003898 40.00546 59.98443
28.91666 301.0653 1.999760 40.00686 60.01153
28.95000 301.4001 1.996096 39.99646 59.99990
28.98334 301.7364 1.992696 39.99700 59.98662
29.01666 302.0722 1.989136 39.99786 60.00450
29.05000 302.4078 1.985324 40.00084 60.00870
29.08334 302.7428 1.981526 40.00450 59.99388
29.11666 303.0742 1.977406 39.99148 60.00331
29.15000 303.4028 1.973050 40.00262 60.00715
29.18333 303.7359 1.969287 40.00109 59.99356
29.21667 304.0660 1.965020 40.00324 60.00520
29.25000 304.3998 1.961024 40.00858 59.98190
29.28333 304.7334 1.957456 40.00200 60.00513
29.31667 305.0677 1.953588 39.99458 60.01458
29.35000 305.4002 1.949656 40.00424 59.99945
29.38334 305.7315 1.945420 40.00389 59.98946
29.41666 306.0646 1.941410 39.99476 60.01207
29.45000 306.4019 1.937879 40.00700 59.98328
29.48334 306.7345 1.933589 39.97671 60.01550
29.51666 307.0652 1.929256 40.02208 59.98762
29.55000 307.3980 1.925259 39.99640 59.99695
29.58334 307.7310 1.921272 39.98470 60.00979
29.61666 308.0640 1.917223 40.00093 60.00592
29.65000 308.3956 1.913051 40.00195 59.98760
29.68333 308.7280 1.908944 39.99746 60.00235
29.71667 309.0594 1.904754 40.00147 60.00256
29.75000 309.3925 1.900610 40.00669 60.00248
29.78333 309.7267 1.896767 40.00174 60.00200
29.81667 310.0615 1.892956 39.99278 59.99111
29.85000 310.3953 1.888918 40.01494 59.99644
29.88334 310.7295 1.884731 39.99308 60.00410
29.91666 311.0618 1.880656 39.99704 60.00006
29.95000 311.3946 1.876455 40.00750 60.00354
29.98334 311.7270 1.872171 39.99547 60.00588
30.01666 312.0588 1.867902 40.00008 59.99135
30.05000 312.3924 1.863861 39.99770 59.99910
30.08334 312.7260 1.859841 40.00320 60.00380
30.11666 313.0580 1.855651 39.99560 59.99582
30.15000 313.3926 1.851616 40.00438 59.99888
30.18333 313.7256 1.847541 39.99014 60.00213
30.21667 314.0590 1.843445 40.00955 59.99570
30.25000 314.3926 1.839401 40.00296 60.01038
30.28333 314.7261 1.835404 39.99783 59.99564
30.31667 315.0610 1.831509 39.99802 59.99091
30.35000 315.3961 1.827534 39.99770 60.01328
30.38334 315.7282 1.823311 39.99900 59.99954
30.41666 316.0608 1.819120 40.00388 59.98940
30.45000 316.3910 1.814830 40.00046 60.00758
30.48334 316.7197 1.810400 39.98718 60.00478
30.51666 317.0512 1.806413 40.01044 60.00318
30.55000 317.3875 1.802812 40.00439 59.98645
30.58334 317.7238 1.799134 39.99219 60.00010
30.61666 318.0580 1.795310 39.99852 60.00594
30.65000 318.3900 1.791036 40.00900 60.00268
30.68333 318.7217 1.786686 40.00075 59.99407
30.71667 319.0604 1.783307 39.99022 60.00340
30.75000 319.3956 1.779954 39.99834 60.00368
30.78333 319.7238 1.775170 40.00537 59.99687
30.81667 320.0516 1.770764 39.99430 60.00220
30.85000 320.3860 1.767256 40.00734 60.00709
30.88334 320.7172 1.763344 39.99972 59.98784
30.91666 321.0529 1.759630 39.99639 60.00280
30.95000 321.3914 1.756549 40.01021 59.99717
30.98334 321.7210 1.751778 39.99469 60.00000
31.01666 322.0564 1.747784 40.00581 59.99612
31.05000 322.3915 1.744430 39.98691 60.00210
31.08334 322.7268 1.740892 40.01123 60.00416
31.11666 323.0579 1.736928 39.99567 60.00305
31.15000 323.3916 1.733332 39.99600 59.99891
31.18333 323.7236 1.729761 40.00587 59.99853
31.21667 324.0502 1.725612 39.99591 59.99098
31.25000 324.3794 1.721594 39.99852 59.99838
31.28333 324.7170 1.718864 39.99690 60.01213
31.31667 325.0544 1.715865 39.99958 60.00408
31.35000 325.3884 1.712549 40.00976 59.99153
31.38334 325.7232 1.709138 40.00247 60.00568
31.41666 326.0538 1.705391 39.99565 59.99921
31.45000 326.3867 1.701937 40.00952 60.00086
31.48334 326.7202 1.698916 39.98745 60.00398
31.51666 327.0532 1.695856 39.99870 59.99224
31.55000 327.3898 1.692941 40.00704 60.00240
31.58334 327.7262 1.690240 39.99217 59.99594
31.61666 328.0611 1.687238 40.00794 60.00048
31.65000 328.3943 1.684197 39.99502 60.00414
31.68333 328.7312 1.681627 39.99378 60.00035
31.71667 329.0672 1.678987 40.00656 59.99688
31.75000 329.3975 1.675571 40.00772 59.99620
31.78333 329.7294 1.672701 39.98620 60.00933
31.81667 330.0602 1.669817 40.00003 59.99557
31.85000 330.3914 1.666985 40.00240 59.99959
31.88334 330.7210 1.664017 40.00512 60.00149
31.91666 331.0512 1.661344 39.99289 59.99771
31.95000 331.3836 1.658890 40.01010 60.00148
31.98334 331.7156 1.656424 39.99953 59.99816
32.01666 332.0460 1.653664 40.00549 59.99621
32.05000 332.3800 1.651300 39.98780 60.00368
32.08333 332.7189 1.649450 40.00032 60.00240
32.11666 333.0540 1.647203 40.00594 59.98906
32.15000 333.3890 1.644958 39.99800 60.00413
32.18334 333.7244 1.642809 39.99646 59.99824
32.21667 334.0603 1.640684 40.00844 59.99988
32.25000 334.3982 1.638999 39.99094 60.00504
32.28333 334.7295 1.636612 40.00402 60.00250
32.31666 335.0605 1.634079 40.00728 59.99307
32.35000 335.3968 1.632458 39.99156 60.00478
32.38334 335.7269 1.630414 40.00211 59.99765
32.41667 336.0589 1.628278 39.99955 60.00526
32.45000 336.3900 1.626288 40.00878 59.98928
32.48334 336.7228 1.624405 39.97912 60.01670
32.51666 337.0572 1.622737 39.99657 59.99970
32.55000 337.3882 1.620801 40.00350 60.00113
32.58333 337.7190 1.618775 40.01519 59.98796
32.61666 338.0524 1.617067 40.00356 59.99813
32.65000 338.3850 1.615479 40.00032 60.00132
32.68334 338.7175 1.613804 39.99921 59.99119
32.71667 339.0536 1.612352 39.98842 60.02053
32.75000 339.3910 1.611029 39.99768 59.99292
32.78333 339.7262 1.609557 40.01623 59.99082
32.81666 340.0620 1.608066 39.99191 60.00421
32.85000 340.3959 1.606703 40.00518 59.99724
32.88334 340.7296 1.605274 39.99382 60.00875
32.91667 341.0622 1.603620 40.00052 60.00440
32.95000 341.3940 1.602033 39.98645 59.99889
32.98334 341.7274 1.600649 40.01258 59.98944
33.01666 342.0617 1.599571 39.99137 60.00949
33.05000 342.3944 1.598182 40.00532 60.00097
33.08333 342.7266 1.596818 39.98863 60.00251
33.11666 343.0596 1.595468 40.00857 59.99288
33.15000 343.3936 1.594333 40.00928 59.98980
33.18334 343.7290 1.593306 39.99009 60.00912
33.21667 344.0634 1.592154 39.99999 60.00908
33.25000 344.3952 1.590777 39.99927 59.99740
33.28333 344.7269 1.589491 39.99754 59.99791
33.31666 345.0574 1.588118 40.01500 59.98972
33.35000 345.3906 1.587048 39.98836 60.00576
33.38334 345.7258 1.586258 40.00528 60.00543
33.41667 346.0618 1.585297 40.00645 59.99759
33.45000 346.4011 1.584581 39.98724 60.00380
33.48334 346.7330 1.583322 39.99905 60.00028
33.51666 347.0653 1.581844 40.01514 59.99060
33.55000 347.3990 1.581166 39.98981 60.01562
33.58333 347.7308 1.579974 40.00220 59.98451
33.61666 348.0637 1.578827 39.99605 60.01329
33.65000 348.3970 1.577830 40.00356 59.98115
33.68334 348.7288 1.576758 40.00371 60.00464
33.71667 349.0626 1.575904 39.99405 60.00163
33.75000 349.3946 1.574769 40.00660 60.00250
33.78333 349.7281 1.573755 39.99289 59.99895
33.81666 350.0622 1.572761 40.00514 59.99826
33.85000 350.3977 1.572087 39.99348 59.99897
33.88334 350.7301 1.571129 40.00026 60.00528
33.91667 351.0632 1.569964 40.00125 59.99313
33.95000 351.3960 1.569142 40.00186 60.01209
33.98334 351.7283 1.568071 39.99784 59.99130
34.01666 352.0616 1.567166 40.00067 60.00446
34.05000 352.3943 1.566198 40.00550 60.00410
34.08333 352.7280 1.565401 40.00198 59.98510
34.11666 353.0626 1.564648 39.99610 60.00782
34.15000 353.3970 1.563684 39.99655 60.00450
34.18334 353.7317 1.562819 40.00217 59.99954
34.21667 354.0647 1.561958 40.00372 59.99900
34.25000 354.3994 1.561017 39.99234 60.00390
34.28333 354.7350 1.560425 40.00667 59.99145
34.31666 355.0690 1.559569 40.00232 60.00622
34.35000 355.3989 1.558446 39.99932 59.99317
34.38334 355.7312 1.557460 40.00020 60.00549
34.41667 356.0650 1.556539 40.00038 59.99456
34.45000 356.3989 1.555906 39.99156 60.00709
34.48334 356.7385 1.555868 40.00552 59.99633
34.51666 357.0721 1.554737 39.99347 59.99788
34.55000 357.4082 1.554312 39.99850 60.00118
34.58333 357.7318 1.552273 40.00328 59.99724
34.61666 358.0637 1.551170 39.99573 59.99994
34.65000 358.4024 1.551166 40.00700 60.00468
34.68334 358.7403 1.551025 39.99542 60.00352
34.71667 359.0743 1.549780 40.00592 60.00115
34.75000 359.4064 1.548976 39.99462 59.99590
34.78333 359.7308 1.547079 40.00878 59.99498
34.81666 360.0631 1.546321 39.99972 60.00000
34.85000 360.3956 1.545777 39.99496 60.00361
34.88334 360.7279 1.544712 39.99389 59.99354
34.91667 361.0600 1.543855 40.00825 60.01145
34.95000 361.3883 1.542414 39.99339 59.99708
34.98334 361.7240 1.541785 40.00156 60.00115
35.01666 362.0641 1.541762 40.00986 59.99736
35.05000 362.4014 1.541079 39.99358 59.99974
35.08333 362.7380 1.540225 40.00254 60.00180
35.11666 363.0750 1.539639 40.00000 60.00230
35.15000 363.4100 1.538758 40.00415 59.98851
35.18334 363.7418 1.537842 39.98820 60.00769
35.21667 364.0740 1.536894 40.01065 59.98946
35.25000 364.4066 1.536145 39.99158 60.01204
35.28333 364.7391 1.535141 39.99998 59.98979
35.31666 365.0726 1.534496 40.00202 60.01179
35.35000 365.4049 1.533629 39.99990 59.98678
35.38334 365.7380 1.532692 40.00020 59.99745
35.41667 366.0708 1.532031 40.00298 60.00474
35.45000 366.4048 1.531129 40.00141 59.99646
35.48334 366.7367 1.530225 39.99860 60.03188
35.51666 367.0683 1.529152 39.99150 59.97426
35.55000 367.3998 1.528262 40.00412 60.01086
35.58333 367.7336 1.527496 39.99594 59.99809
35.61666 368.0681 1.527078 40.02225 59.98624
35.65000 368.4031 1.526404 40.00209 59.99747
35.68334 368.7328 1.525351 39.98445 60.00482
35.71667 369.0650 1.524372 39.98290 60.00961
35.75000 369.3970 1.523844 40.00420 59.99398
35.78333 369.7290 1.522920 40.01772 59.99444
35.81666 370.0596 1.522117 39.98622 60.00171
35.85000 370.3876 1.521123 39.99670 59.99978
35.88334 370.7180 1.520292 40.00808 60.01032
35.91667 371.0509 1.519792 40.00308 59.99039
35.95000 371.3851 1.519214 39.98900 60.00858
35.98334 371.7181 1.518360 40.01820 59.99148
36.01666 372.0528 1.517367 39.98530 60.01590
36.05000 372.3875 1.516691 40.00750 59.99798
36.08333 372.7250 1.516165 40.00028 59.99890
36.11666 373.0614 1.515331 40.00554 59.98599
36.15000 373.3940 1.514142 39.98520 60.01912
36.18334 373.7284 1.513390 39.99822 59.99206
36.21667 374.0618 1.512352 40.00562 60.00146
36.25000 374.3956 1.511470 40.00878 59.99468
36.28333 374.7268 1.510312 39.99454 59.99316
36.31666 375.0584 1.509214 39.99469 60.00926
36.35000 375.3932 1.508659 39.99534 59.99714
36.38334 375.7294 1.508022 40.00344 60.01074
36.41667 376.0706 1.508022 40.02016 59.99048
36.45000 376.4087 1.507364 39.98614 59.99615
36.48334 376.7457 1.506474 40.00919 60.01074
36.51666 377.0842 1.506014 39.99006 59.98954
36.55000 377.4185 1.505154 39.99535 60.00141
36.58333 377.7506 1.504217 40.00591 60.00692
36.61666 378.0820 1.503306 40.00609 59.99630
36.65000 378.4140 1.502272 39.99896 59.99711
36.68334 378.7412 1.501179 40.00109 59.99739
36.71667 379.0728 1.500438 40.00247 60.00627
36.75000 379.4047 1.499825 39.98681 59.99561
36.78333 379.7345 1.498710 40.00183 60.00938
36.81666 380.0670 1.498015 39.99763 59.98894
36.85000 380.4000 1.497108 40.01111 60.00063
36.88334 380.7317 1.496022 40.00071 59.99672
36.91667 381.0656 1.495312 40.00163 60.00865
36.95000 381.3992 1.494704 39.98584 59.99618
36.98334 381.7336 1.493999 40.00678 60.00274
37.01666 382.0694 1.493208 39.99250 59.99668
37.05000 382.4033 1.492510 40.00663 60.01232
37.08333 382.7359 1.491626 40.00383 59.99024
37.11666 383.0683 1.490674 40.00266 59.99441
37.15000 383.4016 1.489915 39.98777 60.01161
37.18334 383.7366 1.489347 40.00470 59.98780
37.21667 384.0720 1.488779 39.99880 60.00950
37.25000 384.4048 1.487808 40.01354 59.99096
37.28333 384.7389 1.486872 39.98380 60.00098
37.31666 385.0716 1.486156 40.00754 59.99727
37.35000 385.4065 1.485366 39.99697 60.00737
37.38334 385.7410 1.484963 40.00388 59.99820
37.41667 386.0754 1.484239 39.99166 60.00293
37.45000 386.4086 1.483358 40.00319 60.00476
37.48334 386.7417 1.482680 40.00176 59.98786
37.51666 387.0768 1.482016 40.00016 60.00666
37.55000 387.4075 1.481031 40.00410 60.00340
37.58333 387.7383 1.479912 39.99550 59.99363
37.61666 388.0686 1.478895 40.00054 60.00748
37.65000 388.4039 1.478481 39.99752 60.00272
37.68334 388.7395 1.478182 40.01054 59.98790
37.71667 389.0702 1.476980 39.99413 59.99836
37.75000 389.4040 1.476052 40.00302 60.00452
37.78333 389.7369 1.475362 40.00031 60.00118
37.81666 390.0703 1.474534 39.99685 60.00306
37.85000 390.4032 1.473836 39.99560 60.00170
37.88334 390.7370 1.473068 39.99716 59.99430
37.91667 391.0697 1.472230 39.99878 59.99457
37.95000 391.4028 1.471338 40.00946 60.01224
37.98334 391.7370 1.470706 39.99226 59.99470
38.01666 392.0682 1.469827 40.00116 59.99820
38.05000 392.4017 1.469064 40.01117 59.99200
38.08333 392.7361 1.468186 39.99779 60.00505
38.11666 393.0691 1.467461 39.99896 60.00515
38.15000 393.4021 1.466570 39.99790 59.98878
38.18334 393.7354 1.465921 39.99914 60.01470
38.21667 394.0687 1.465286 39.99254 59.99395
38.25000 394.4006 1.464306 40.01365 60.00512
38.28333 394.7342 1.463457 39.99903 60.00104
38.31666 395.0695 1.462880 39.99368 60.00283
38.35000 395.4040 1.462326 40.00238 59.99590
38.38334 395.7390 1.461475 39.98860 59.99728
38.41667 396.0712 1.460621 40.00364 59.99412
38.45000 396.4048 1.459734 39.99850 59.99874
38.48334 396.7367 1.458832 40.00588 60.01109
38.51666 397.0700 1.457982 40.00400 60.00251
38.55000 397.4022 1.457181 39.99091 59.98774
38.58333 397.7352 1.456440 40.01352 60.00202
38.61666 398.0706 1.455996 39.99829 60.00970
38.65000 398.4038 1.455132 39.98663 59.99864
38.68334 398.7383 1.454363 40.01192 59.99182
38.71667 399.0722 1.453625 39.98746 59.99852
38.75000 399.4033 1.452562 40.00105 60.01130
38.78333 399.7355 1.451749 40.01468 59.98950
38.81666 400.0700 1.451146 39.99568 60.01537
38.85000 400.4056 1.450572 40.00800 59.99402
38.88334 400.7415 1.449954 39.99700 60.00186
38.91667 401.0764 1.449082 39.99590 59.99872
38.95000 401.4110 1.448482 40.00215 59.99594
38.98334 401.7442 1.447752 39.99649 59.98838
39.01666 402.0752 1.446758 40.00887 60.01084
39.05000 402.4058 1.445714 40.00104 59.99658
39.08333 402.7382 1.444956 39.99328 60.01399
39.11666 403.0721 1.444224 39.99745 59.98213
39.15000 403.4062 1.443530 40.00248 60.01675
39.18334 403.7405 1.442823 39.98566 59.98283
39.21667 404.0741 1.442034 40.01958 60.00538
39.25000 404.4074 1.441186 39.98350 59.98943
39.28333 404.7400 1.440283 40.01224 60.01873
39.31666 405.0742 1.439577 39.99048 59.98564
39.35000 405.4080 1.438859 39.99074 59.99900
39.38334 405.7426 1.437994 40.01076 60.02092
39.41667 406.0775 1.437437 39.99655 59.98256
39.45000 406.4125 1.436896 40.00035 60.00913
39.48334 406.7460 1.436032 39.99206 59.98989
39.51666 407.0774 1.435017 40.01434 59.99754
39.55000 407.4087 1.434036 40.00644 60.01730
39.58333 407.7388 1.433034 39.98935 59.98513
39.61666 408.0712 1.432184 39.99916 60.00414
39.65000 408.4066 1.431912 40.00488 59.99230
39.68334 408.7426 1.431232 40.00166 60.01147
39.71667 409.0729 1.430136 39.99117 59.99826
39.75000 409.4085 1.429393 40.00158 59.99574
39.78333 409.7465 1.429274 39.99714 59.99820
39.81666 410.0794 1.428335 40.00690 60.00590
39.85000 410.4170 1.427769 39.99414 59.99012
39.88334 410.7486 1.426953 40.01164 60.01172
39.91667 411.0800 1.425886 39.98019 59.99541
39.95000 411.4082 1.424568 40.01464 59.99171
39.98334 411.7374 1.423476 39.99186 60.01125
40.01666 412.0697 1.422710 40.00595 60.00834
40.05000 412.4038 1.422158 40.00147 59.98316
40.08333 412.7383 1.421583 39.99920 60.00970
40.11666 413.0728 1.420886 39.99863 59.99628
40.15000 413.4108 1.420304 40.00770 60.00489
40.18334 413.7465 1.419658 40.00144 59.99372
40.21667 414.0808 1.418779 39.99130 60.00902
40.25000 414.4124 1.417839 40.00562 59.98980
40.28333 414.7447 1.416914 39.99836 60.00822
40.31666 415.0778 1.416106 40.00044 59.99754
40.35000 415.4100 1.415350 39.99770 59.99459
40.38334 415.7428 1.414561 40.00220 59.99687
40.41667 416.0760 1.413684 39.98740 60.00147
40.45000 416.4128 1.413224 40.00832 60.01248
40.48334 416.7446 1.412382 40.00856 59.99289
40.51666 417.0777 1.411540 39.99128 59.99824
40.55000 417.4075 1.410401 40.00543 60.00481
40.58333 417.7387 1.409290 40.00210 59.99868
40.61666 418.0748 1.408965 39.98886 59.99302
40.65000 418.4140 1.408715 40.00912 60.00576
40.68334 418.7484 1.407953 39.99084 59.99707
40.71667 419.0832 1.407014 40.01286 60.00709
40.75000 419.4189 1.406356 39.98810 59.99258
40.78333 419.7502 1.405497 40.00494 59.99766
40.81666 420.0809 1.404402 40.00100 60.00135
40.85000 420.4098 1.403177 39.99884 60.00669
40.88334 420.7428 1.402615 39.99419 60.00163
40.91667 421.0768 1.401937 40.00666 59.98863
40.95000 421.4100 1.401256 40.00702 60.01113
40.98334 421.7416 1.400156 40.00298 59.99074
41.01666 422.0742 1.399339 39.98090 60.00289
41.05000 422.4058 1.398089 40.00437 59.99488
41.08333 422.7440 1.397680 40.00980 60.01113
41.11666 423.0796 1.397144 39.98639 59.99318
41.15000 423.4152 1.396392 40.01053 60.00410
41.18334 423.7506 1.395746 39.99806 59.99835
41.21667 424.0812 1.394612 39.99382 60.00264
41.25000 424.4148 1.393658 40.00120 59.99824
41.28333 424.7500 1.393031 39.99835 60.00693
41.31666 425.0850 1.392511 39.99691 59.98496
41.35000 425.4171 1.391569 40.00341 60.00784
41.38334 425.7491 1.390539 39.99524 59.99684
41.41667 426.0810 1.389610 40.01723 60.01203
41.45000 426.4122 1.388754 39.98553 59.98799
41.48334 426.7456 1.387942 40.00287 59.99685
41.51666 427.0816 1.387359 39.99491 60.00718
41.55000 427.4188 1.387066 40.00960 60.00579
41.58333 427.7507 1.385902 40.00134 59.99688
41.61666 428.0789 1.384381 39.99649 59.99016
41.65000 428.4150 1.384022 40.00674 60.00984
41.68334 428.7470 1.383144 39.99255 59.99906
41.71667 429.0816 1.382485 40.00369 59.99352
41.75000 429.4152 1.381682 40.00526 60.00787
41.78333 429.7486 1.380869 39.99466 60.00101
41.81666 430.0813 1.380072 39.99191 59.99902
41.85000 430.4098 1.378634 39.99785 59.99424
41.88334 430.7473 1.378171 40.02124 60.01363
41.91667 431.0824 1.377794 40.00081 59.99598
41.95000 431.4179 1.376832 39.98994 59.98710
41.98334 431.7522 1.376109 39.99970 60.01608
42.01666 432.0867 1.375258 40.00562 59.99861
42.05000 432.4212 1.374563 39.99020 59.99680
42.08333 432.7522 1.373485 39.99406 60.00324
42.11666 433.0840 1.372512 40.01056 59.99433
42.15000 433.4150 1.371326 39.98766 59.98848
42.18334 433.7475 1.370536 40.01556 60.00596
42.21667 434.0812 1.369711 39.99549 60.00991
42.25000 434.4142 1.368874 39.99228 59.98075
42.28333 434.7474 1.367933 40.01509 60.01844
42.31666 435.0814 1.367044 39.99897 59.99854
42.35000 435.4164 1.366487 39.99805 59.99311
42.38334 435.7490 1.365523 39.99809 60.00193
42.41667 436.0812 1.364408 40.00494 60.00020
42.45000 436.4168 1.363708 39.98760 59.99701
42.48334 436.7534 1.363193 39.99901 59.99664
42.51666 437.0890 1.362471 40.00405 60.00414
42.55000 437.4228 1.361549 39.99244 59.99686
42.58333 437.7562 1.360456 40.00688 59.99826
42.61666 438.0910 1.359942 39.98990 60.00175
42.65000 438.4246 1.359048 40.00701 60.00302
42.68334 438.7576 1.358206 40.00977 60.00090
42.71667 439.0944 1.357752 39.98368 60.00227
42.75000 439.4304 1.357120 40.01438 59.99414
42.78333 439.7598 1.356000 39.99250 59.99969
42.81666 440.0852 1.354203 40.00710 60.00113
42.85000 440.4121 1.352669 39.99012 60.00651
42.88334 440.7500 1.352605 40.00085 59.99732
42.91667 441.0824 1.351858 39.99893 60.00014
42.95000 441.4139 1.350559 40.00364 60.01094
42.98334 441.7488 1.350083 40.00470 59.99804
43.01666 442.0813 1.348809 39.99847 59.98807
43.05000 442.4140 1.347698 40.00319 60.00782
43.08333 442.7486 1.346874 39.99934 59.98760
43.11666 443.0838 1.346204 39.99082 59.99282
43.15000 443.4190 1.345329 40.00705 60.01404
43.18334 443.7480 1.343772 39.99617 59.99692
43.21667 444.0838 1.343200 40.00244 59.99940
43.25000 444.4189 1.342452 39.99662 59.99602
43.28333 444.7519 1.341261 39.99783 60.00803
43.31666 445.0867 1.340270 40.00331 60.00163
43.35000 445.4204 1.339421 40.00475 59.99476
43.38334 445.7554 1.338516 39.99338 60.00276
43.41667 446.0892 1.337553 40.00691 59.99355
43.45000 446.4231 1.336687 39.99528 60.00818
43.48334 446.7570 1.335690 39.99985 60.00488
43.51666 447.0902 1.334833 40.00874 59.99330
43.55000 447.4202 1.333537 39.99137 60.00234
43.58333 447.7522 1.332413 40.00180 60.00230
43.61666 448.0850 1.331474 40.00833 59.99125
43.65000 448.4172 1.330331 39.99823 60.00753
43.68334 448.7502 1.329249 39.99889 59.99690
43.71667 449.0842 1.328182 39.99412 59.99560
43.75000 449.4186 1.327265 40.00991 60.00428
43.78333 449.7506 1.326188 39.99352 60.00422
43.81666 450.0856 1.325088 39.99236 60.00310
43.85000 450.4205 1.324124 40.00598 59.99070
43.88334 450.7576 1.323296 39.99576 60.00007
43.91667 451.0953 1.322666 40.00580 60.00310
43.95000 451.4309 1.321706 39.99863 59.99332
43.98334 451.7658 1.320678 39.99714 60.00141
44.01666 452.0970 1.319404 40.00507 60.01102
44.05000 452.4283 1.318184 40.00398 59.99384
44.08333 452.7600 1.317035 39.98764 59.99902
44.11666 453.0943 1.316083 40.01428 60.00059
44.15000 453.4289 1.315219 39.98350 60.00164
44.18334 453.7566 1.313663 40.01503 59.99450
44.21667 454.0869 1.312032 39.98124 59.99901
44.25000 454.4234 1.311499 40.01422 60.01476
44.28333 454.7572 1.310435 40.00119 59.99426
44.31666 455.0894 1.308936 39.98664 59.98691
44.35000 455.4208 1.307651 40.00593 60.01650
44.38334 455.7561 1.306704 39.99370 60.00224
44.41667 456.0926 1.305765 40.00618 59.98791
44.45000 456.4288 1.304662 39.99158 59.99844
44.48334 456.7685 1.304099 40.00683 60.00226
44.51666 457.1068 1.303347 40.01855 59.99730
44.55000 457.4374 1.301670 39.99132 60.00994
44.58333 457.7656 1.299914 39.99046 59.98922
44.61666 458.0954 1.298393 40.00750 60.00842
44.65000 458.4269 1.297242 39.98539 59.98321
44.68334 458.7600 1.296164 40.00908 60.02450
44.71667 459.0939 1.295040 40.00994 59.98188
44.75000 459.4273 1.293730 39.99348 60.00237
44.78333 459.7610 1.292342 40.00956 60.00101
44.81666 460.0972 1.291311 39.98290 60.00535
44.85000 460.4333 1.290133 40.00788 60.00100
44.88334 460.7649 1.288753 39.99762 60.00662
44.91667 461.0976 1.287276 40.00728 59.98359
44.95000 461.4317 1.286146 39.99528 59.99776
44.98334 461.7691 1.285402 39.99116 60.00526
45.01666 462.1028 1.284298 40.01080 60.00408
45.05000 462.4370 1.282785 39.99864 59.99722
45.08333 462.7710 1.281743 40.00211 59.99290
45.11666 463.1036 1.280303 39.98726 60.00729
45.15000 463.4376 1.279098 40.00750 60.00166
45.18334 463.7716 1.277912 40.00516 60.00551
45.21667 464.1020 1.276413 39.99466 59.98970
45.25000 464.4333 1.274905 39.99850 60.00508
45.28333 464.7650 1.273451 40.00656 59.99985
45.31666 465.0964 1.271943 39.99610 60.00571
45.35000 465.4281 1.270559 40.00774 59.98940
45.38334 465.7610 1.268980 39.99403 60.00037
45.41667 466.1003 1.268403 39.99391 60.02564
45.45000 466.4353 1.266935 40.00386 59.97432
45.48334 466.7708 1.265650 40.00344 60.00394
45.51666 467.1062 1.264395 39.99875 59.99800
45.55000 467.4415 1.263156 39.99115 60.00359
45.58333 467.7747 1.261736 40.01617 60.00430
45.61666 468.1067 1.260150 39.99518 60.00082
45.65000 468.4386 1.258505 39.99690 59.99494
45.68334 468.7710 1.257178 39.99420 60.00500
45.71667 469.1043 1.255854 40.00713 59.99776
45.75000 469.4385 1.254557 39.99438 59.99780
45.78333 469.7728 1.253146 40.00014 59.99876
45.81666 470.1047 1.251531 40.00113 59.99616
45.85000 470.4354 1.249881 40.00154 60.00240
45.88334 470.7676 1.248194 40.00040 60.00874
45.91667 471.1032 1.246979 39.99477 59.98515
45.95000 471.4406 1.245999 40.00908 59.99981
45.98334 471.7785 1.244837 39.99859 60.00506
46.01666 472.1125 1.243240 40.00089 60.00410
46.05000 472.4428 1.241319 39.99542 60.00108
46.08333 472.7742 1.239407 39.99000 59.99885
46.11666 473.1068 1.237930 40.01263 60.00391
46.15000 473.4402 1.236594 39.99304 59.99618
46.18334 473.7704 1.234919 40.00774 59.99355
46.21667 474.1050 1.233223 40.00073 60.00520
46.25000 474.4394 1.231905 40.00272 59.99444
46.28333 474.7739 1.230301 40.00683 59.99937
46.31666 475.1061 1.228712 39.99817 60.00476
46.35000 475.4394 1.226742 39.99054 60.00450
46.38334 475.7762 1.225537 39.99680 60.00699
46.41667 476.1117 1.224072 40.00565 59.98955
46.45000 476.4464 1.222534 39.99913 59.99944
46.48334 476.7809 1.220930 39.98984 60.00544
46.51666 477.1107 1.218662 40.01434 59.99717
46.55000 477.4424 1.216820 40.00145 59.98959
46.58333 477.7758 1.215344 39.98413 60.00539
46.61666 478.1106 1.213888 40.00920 60.00439
46.65000 478.4409 1.211769 39.99730 60.00192
46.68334 478.7742 1.209996 39.99077 60.00717
46.71667 479.1134 1.208763 40.00212 59.99302
46.75000 479.4489 1.207151 40.01104 59.98746
46.78333 479.7802 1.204844 39.98715 60.01250
46.81666 480.1142 1.203033 40.00456 60.00669
46.85000 480.4480 1.201165 40.00700 59.98342
46.88334 480.7854 1.199935 40.00014 60.01054
46.91667 481.1131 1.197321 39.99288 59.99982
46.95000 481.4434 1.195044 40.00710 59.99262
46.98334 481.7800 1.193680 40.01067 60.00807
47.01666 482.1128 1.191701 39.97653 60.01066
47.05000 482.4490 1.189806 40.01308 59.98784
47.08333 482.7868 1.188494 40.00631 59.98951
47.11666 483.1148 1.185759 39.98168 60.01063
47.15000 483.4470 1.183176 40.00910 60.00149
47.18334 483.7873 1.182378 40.00996 60.00020
47.21667 484.1156 1.179448 39.98724 59.99163
47.25000 484.4482 1.176955 40.01288 60.00008
47.28333 484.7859 1.175500 39.99852 60.00425
47.31666 485.1191 1.173450 39.99675 60.00076
47.35000 485.4504 1.170693 39.99450 59.99734
47.38334 485.7833 1.168310 39.99534 60.00108
47.41667 486.1188 1.166322 39.99899 59.99659
47.45000 486.4540 1.164425 40.01460 60.01057
47.48334 486.7842 1.161523 39.98498 60.00007
47.51666 487.1156 1.158921 40.01360 59.98719
47.55000 487.4531 1.156859 39.98847 60.01164
47.58333 487.7896 1.155035 40.00336 59.99473
47.61666 488.1229 1.152025 40.00648 59.99709
47.65000 488.4544 1.149191 39.99204 60.00698
47.68334 488.7898 1.147075 39.99301 60.00318
47.71667 489.1230 1.144305 40.01478 59.99104
47.75000 489.4570 1.141692 39.99817 59.99941
47.78333 489.7957 1.139388 39.99870 59.99590
47.81666 490.1330 1.137042 39.99894 60.00844
47.85000 490.4640 1.133967 39.99302 59.99609
47.88334 490.7947 1.130584 40.01237 60.00344
47.91667 491.1275 1.127812 39.99839 59.99459
47.95000 491.4591 1.124734 39.99778 60.00284
47.98334 491.7903 1.121534 40.00117 59.99562
48.01666 492.1213 1.118111 39.99430 60.00816
48.05000 492.4590 1.115335 40.00168 59.99853
48.08333 492.7954 1.112526 40.00380 60.00072
48.11666 493.1279 1.109023 40.00167 59.99560
48.15000 493.4598 1.105320 39.99115 60.00536
48.18334 493.7963 1.102272 40.01009 59.99778
48.21667 494.1312 1.099001 39.99508 59.99781
48.25000 494.4667 1.095574 40.00694 59.99410
48.28333 494.8072 1.092585 39.98524 60.01752
48.31666 495.1430 1.089436 40.00424 59.99052
48.35000 495.4708 1.084728 39.99718 59.99664
48.38334 495.8017 1.080659 40.00631 59.99560
48.41667 496.1382 1.077444 40.00612 60.00108
48.45000 496.4650 1.073102 39.99744 60.00150
48.48334 496.7929 1.068051 39.99856 60.00551
48.51666 497.1294 1.064723 39.99822 60.00079
48.55000 497.4662 1.061125 39.99992 59.99148
48.58333 497.7997 1.056528 40.00462 60.00352
48.61666 498.1365 1.052305 39.99007 60.00420
48.65000 498.4692 1.047648 40.00684 59.99726
48.68334 498.8014 1.042854 39.99098 59.99744
48.71667 499.1372 1.038397 40.00586 60.00179
48.75000 499.4700 1.033688 40.00208 60.00669
48.78333 499.8062 1.029042 40.00040 59.98680
48.81666 500.1460 1.024990 40.00320 60.00379
48.85000 500.4770 1.019810 39.98878 59.99642
48.88334 500.8100 1.014559 40.00541 60.00581
48.91667 501.1413 1.009612 40.00082 59.99515
48.95000 501.4728 1.004048 39.99792 60.01101
48.98334 501.8064 0.9988556 39.99875 60.00081
49.01666 502.1414 0.9939062 40.00838 60.00037
49.05000 502.4725 0.9882141 39.99454 59.99265
49.08333 502.8004 0.9820874 40.00760 60.00406
49.11666 503.1319 0.9763149 39.99555 59.99182
49.15000 503.4664 0.9708853 40.00662 60.00750
49.18334 503.8006 0.9654004 39.98572 59.99015
49.21667 504.1394 0.9601762 39.99808 60.00178
49.25000 504.4731 0.9543024 40.00525 60.01113
49.28333 504.8123 0.9488494 39.99556 60.00190
49.31666 505.1450 0.9429202 40.00746 59.99698
49.35000 505.4720 0.9361688 40.00914 59.99700
49.38334 505.7970 0.9292528 39.98146 60.00902
49.41667 506.1310 0.9234710 39.99522 60.00030
49.45000 506.4704 0.9183447 40.02445 59.98666
49.48334 506.8048 0.9123070 39.98459 60.00136
49.51666 507.1348 0.9054660 40.01196 60.01116
49.55000 507.4719 0.8996578 39.99918 59.98700
49.58333 507.8033 0.8931894 39.98299 60.00499
49.61666 508.1338 0.8867731 40.02280 59.99980
49.65000 508.4662 0.8803749 39.98288 60.00070
49.68334 508.7962 0.8739121 40.00774 60.00526
49.71667 509.1264 0.8672535 39.99434 59.99731
49.75000 509.4584 0.8608929 39.99011 59.99324
49.78333 509.7918 0.8546028 40.00097 60.00140
49.81666 510.1262 0.8484864 40.01456 59.99606
49.85000 510.4610 0.8423681 39.98867 59.99794
49.88334 510.7922 0.8357975 40.00564 60.01171
49.91667 511.1287 0.8296416 40.00586 59.98790
49.95000 511.4636 0.8236474 39.99844 60.00871
49.98334 511.7976 0.8175157 39.99451 60.01063
50.01666 512.1296 0.8113038 39.99744 59.99166
50.05000 512.4602 0.8048030 40.00898 59.99238
50.08333 512.7918 0.7983530 39.99120 60.01118
50.11666 513.1240 0.7922043 40.00044 59.98332
50.15000 513.4561 0.7861386 40.00922 60.01378
50.18334 513.7862 0.7796820 39.99228 59.99918
50.21667 514.1191 0.7735266 40.01009 59.99868
50.25000 514.4486 0.7687126 40.00010 60.00129
50.28333 514.7813 0.7648798 39.98906 59.98914
50.31666 515.1166 0.7598722 40.00916 60.00296
50.35000 515.4526 0.7543189 39.99820 60.01656
50.38334 515.7902 0.7488055 40.00036 59.98305
50.41667 516.1240 0.7431616 40.01083 60.00006
50.45000 516.4567 0.7371516 39.97992 60.00297
50.48334 516.7879 0.7310751 40.00268 59.99888
50.51666 517.1175 0.7250032 39.99907 60.00340
50.55000 517.4494 0.7189956 40.00518 60.00218
50.58333 517.7856 0.7136988 39.99844 59.99672
50.61666 518.1204 0.7091493 40.00436 60.00127
50.65000 518.4553 0.7034282 39.99182 59.99213
50.68334 518.7875 0.6974456 40.00597 60.00418
50.71667 519.1206 0.6916800 40.00420 59.99899
50.75000 519.4529 0.6859991 39.98897 60.00554
50.78333 519.7852 0.6806996 40.00094 59.99384
50.81666 520.1188 0.6754942 39.99785 60.00030
50.85000 520.4537 0.6704080 40.00503 60.00510
50.88334 520.7878 0.6653609 40.00100 59.99322
50.91667 521.1221 0.6601371 39.99808 60.01179
50.95000 521.4580 0.6554272 40.00348 59.99574
50.98334 521.7890 0.6499818 39.99434 60.00590
51.01666 522.1176 0.6444750 40.00336 59.98736
51.05000 522.4494 0.6399114 39.99365 60.00234
51.08333 522.7856 0.6356370 40.02160 60.01462
51.11666 523.1219 0.6311666 39.99143 59.98739
51.15000 523.4562 0.6263829 39.99186 59.99214
51.18334 523.7904 0.6216060 39.99586 59.99901
51.21667 524.1246 0.6168291 40.01557 60.01426
51.25000 524.4582 0.6116636 39.99038 60.00342
51.28333 524.7911 0.6069311 39.99607 59.98764
51.31666 525.1256 0.6024988 40.00938 60.00130
51.35000 525.4595 0.5982960 39.99056 60.00220
51.38334 525.7929 0.5939143 40.01671 60.00524
51.41667 526.1260 0.5895700 39.98900 60.00660
51.45000 526.4594 0.5851610 39.99163 59.98774
51.48333 526.7943 0.5811085 40.00594 60.00343
51.51667 527.1294 0.5770750 39.98831 59.99468
51.55000 527.4630 0.5728760 40.02403 60.01057
51.58333 527.7955 0.5686033 39.97732 59.98601
51.61666 528.1285 0.5645000 40.00955 60.00538
51.65000 528.4602 0.5607704 40.01140 60.00616
51.68334 528.7920 0.5565098 39.99554 59.99631
51.71667 529.1238 0.5528635 39.99866 59.99374
51.75000 529.4589 0.5497808 39.99156 59.99790
51.78333 529.7968 0.5464139 39.99738 60.01943
51.81666 530.1345 0.5430071 39.99826 59.97750
51.85000 530.4712 0.5396597 39.99979 60.00664
51.88334 530.8023 0.5356676 40.01080 60.00902
51.91667 531.1319 0.5312053 39.99782 59.99544
51.95000 531.4607 0.5268938 40.00514 59.99476
51.98333 531.7902 0.5224375 39.99412 59.99922
52.01667 532.1274 0.5150192 40.00949 60.00996
52.05000 532.4698 0.5078980 39.99058 59.99875
52.08333 532.8037 0.5031300 39.99289 59.98828
52.11666 533.1326 0.4991962 40.00888 60.00438
52.15000 533.4691 0.4964194 40.00802 60.00657
52.18334 533.8057 0.4938576 39.99242 59.99722
52.21667 534.1380 0.4904506 39.99863 60.00032
52.25000 534.4734 0.4874396 40.00093 59.99580
52.28333 534.8074 0.4845008 40.00172 60.00918
52.31666 535.1404 0.4812666 40.00082 60.00234
52.35000 535.4744 0.4781120 39.99304 59.98938
52.38334 535.8116 0.4758326 40.00552 60.00755
52.41667 536.1410 0.4722534 40.00058 59.99067
52.45000 536.4708 0.4687662 39.99946 59.99694
52.48332 536.8057 0.4663268 39.99593 60.00121
52.51668 537.1390 0.4636510 39.99903 60.01113
52.55000 537.4714 0.4605131 39.99600 59.99636
52.58332 537.8090 0.4581171 40.00468 60.00127
52.61666 538.1433 0.4555292 39.99971 59.99578
52.65000 538.4770 0.4527004 40.00685 59.99907
52.68334 538.8070 0.4497383 40.00188 60.00693
52.71668 539.1394 0.4469734 39.99642 59.99180
52.75000 539.4730 0.4444218 40.00103 60.01137
52.78332 539.8032 0.4416948 39.99544 59.99090
52.81666 540.1380 0.4391270 39.99594 60.00139
52.85000 540.4732 0.4369309 40.00706 60.00648
52.88334 540.8069 0.4345113 39.99747 59.99272
52.91668 541.1424 0.4322372 39.99776 60.00054
52.95000 541.4778 0.4301200 40.01188 60.00871
52.98332 541.8142 0.4281733 39.99389 59.99876
53.01668 542.1512 0.4263634 39.99025 59.99020
53.05000 542.4838 0.4240556 40.00864 60.01316
53.08332 542.8135 0.4216460 39.99602 59.98644
53.11666 543.1450 0.4192850 40.00415 60.00894
53.15000 543.4756 0.4171042 39.99545 59.99106
53.18334 543.8067 0.4149392 40.00261 60.00172
53.21668 544.1401 0.4129705 39.99920 60.00318
53.25000 544.4746 0.4110574 40.00894 59.99570
53.28332 544.8100 0.4094489 39.98664 59.99378
53.31666 545.1452 0.4076761 40.00200 60.01124
53.35000 545.4802 0.4057787 39.99825 59.99358
53.38334 545.8140 0.4040800 40.00174 60.00668
53.41668 546.1464 0.4021518 40.00818 59.99040
53.45000 546.4790 0.4004040 39.99290 60.00578
53.48332 546.8128 0.3987425 39.99912 59.99637
53.51668 547.1451 0.3971748 40.00676 60.01372
53.55000 547.4778 0.3954886 39.98726 59.98779
53.58332 547.8140 0.3942270 40.01382 60.01082
53.61666 548.1499 0.3929886 39.98360 59.98615
53.65000 548.4854 0.3916508 40.00487 60.01518
53.68334 548.8187 0.3903106 39.99816 59.99676
53.71668 549.1465 0.3882110 40.00075 59.98585
53.75000 549.4780 0.3866248 40.00237 59.99775
53.78332 549.8120 0.3856040 40.00436 60.01448
53.81666 550.1451 0.3841662 39.99254 59.99325
53.85000 550.4812 0.3830945 40.01578 60.00230
53.88334 550.8170 0.3821270 39.98597 59.99488
53.91668 551.1528 0.3810166 40.01386 60.01752
53.95000 551.4879 0.3801045 39.99074 59.98632
53.98332 551.8200 0.3786747 39.99553 59.99872
54.01668 552.1522 0.3774728 40.01634 60.00480
54.05000 552.4829 0.3761466 39.98694 60.00166
54.08332 552.8159 0.3751378 40.00646 59.99928
54.11666 553.1513 0.3744070 39.99172 59.99126
54.15000 553.4900 0.3739367 39.99729 59.99920
54.18334 553.8224 0.3729044 39.99740 60.01080
54.21668 554.1530 0.3714547 40.01420 59.99741
54.25000 554.4815 0.3701487 39.99687 59.99538
54.28332 554.8112 0.3686764 40.00054 60.00390
54.31666 555.1438 0.3679154 39.99461 60.00074
54.35000 555.4816 0.3675044 40.00050 59.99470
54.38334 555.8241 0.3676118 40.00018 60.00951
54.41668 556.1630 0.3674040 40.01312 60.00406
54.45000 556.4972 0.3663263 39.99046 59.99352
54.48332 556.8316 0.3655395 40.00413 59.99236
54.51668 557.1589 0.3642674 39.99286 60.00380
54.55000 557.4850 0.3627328 40.00443 60.00217
54.58332 557.8178 0.3622582 39.99470 60.00011
54.61666 558.1518 0.3617953 40.00404 59.99258
54.65000 558.4869 0.3612076 39.99533 59.99990
54.68334 558.8218 0.3605355 40.00672 60.00352
54.71668 559.1580 0.3602338 40.00117 59.99814
54.75000 559.4948 0.3597237 40.00209 60.00666
54.78332 559.8293 0.3593388 40.00158 60.00574
54.81666 560.1610 0.3584607 39.98935 59.99813
54.85000 560.4934 0.3578008 40.00154 59.99685
54.88334 560.8286 0.3574062 40.00682 59.99530
54.91668 561.1627 0.3570417 39.99648 59.99726
54.95000 561.4988 0.3566866 39.99336 60.00745
54.98332 561.8347 0.3565459 40.00482 59.98970
55.01668 562.1664 0.3558894 39.99925 60.01385
55.05000 562.4970 0.3550398 40.00568 59.99168
55.08332 562.8291 0.3544264 40.00059 59.99769
55.11666 563.1639 0.3543041 40.00359 59.99988
55.15000 563.4963 0.3537572 39.98944 60.00687
55.18334 563.8305 0.3531955 39.99331 60.00066
55.21668 564.1668 0.3531079 40.00747 59.99893
55.25000 564.5026 0.3529563 40.00474 60.00014
55.28332 564.8342 0.3522638 40.00056 59.99340
55.31666 565.1670 0.3517242 39.99579 59.99630
55.35000 565.5024 0.3515918 40.00923 60.01424
55.38334 565.8346 0.3510933 39.99644 59.99390
55.41668 566.1655 0.3503680 39.99256 59.99366
55.45000 566.4972 0.3499655 39.99836 60.00097
55.48332 566.8332 0.3497083 40.00406 59.99815
55.51668 567.1701 0.3496609 39.99580 60.01171
55.55000 567.5063 0.3497215 40.01082 59.99141
55.58332 567.8409 0.3492665 39.99478 59.99976
55.61666 568.1758 0.3493486 39.99445 60.00670
55.65000 568.5068 0.3488090 40.01802 60.00708
55.68334 568.8404 0.3485183 39.99012 59.97965
55.71668 569.1759 0.3487430 40.01180 60.01103
55.75000 569.5076 0.3482448 39.97976 60.00176
55.78332 569.8370 0.3475808 40.00876 59.99921
55.81666 570.1690 0.3471582 39.98909 60.00850
55.85000 570.5012 0.3469314 40.00681 59.98779
55.88334 570.8329 0.3465181 40.00450 59.99341
55.91668 571.1672 0.3459962 39.98539 60.00509
55.95000 571.5056 0.3464200 39.99797 60.00538
55.98332 571.8391 0.3460901 40.01172 59.99650
56.01668 572.1709 0.3453904 39.99161 60.00970
56.05000 572.5040 0.3449975 40.00641 59.99475
56.08332 572.8420 0.3454016 40.01006 59.99091
56.11666 573.1812 0.3457950 39.99485 60.00262
56.15000 573.5184 0.3458777 39.99035 60.00245
56.18334 573.8501 0.3457624 40.01283 60.00048
56.21668 574.1834 0.3452074 39.98895 60.00227
56.25000 574.5141 0.3452404 40.00228 59.98784
56.28332 574.8404 0.3441998 40.01406 60.01576
56.31666 575.1684 0.3433008 39.99756 59.99940
56.35000 575.5018 0.3434741 39.99306 59.99745
56.38334 575.8390 0.3435650 39.99784 59.99980
56.41668 576.1762 0.3436665 39.99240 59.99864
56.45000 576.5135 0.3436942 40.00388 59.99816
56.48332 576.8456 0.3433540 40.01156 60.00021
56.51668 577.1724 0.3421048 39.99023 60.00278
56.55000 577.5060 0.3419502 40.00055 60.00692
56.58332 577.8414 0.3423319 40.00348 59.99026
56.61666 578.1766 0.3421386 39.99150 60.00559
56.65000 578.5142 0.3423120 40.00122 59.99487
56.68334 578.8552 0.3429336 40.00431 60.00324
56.71668 579.1873 0.3425846 39.99520 59.99559
56.75000 579.5141 0.3415360 40.00336 60.00324
56.78332 579.8464 0.3415580 40.00482 59.99870
56.81666 580.1797 0.3414893 40.00180 59.99370
56.85000 580.5141 0.3414303 39.98918 60.01308
56.88334 580.8468 0.3412597 40.00808 59.99110
56.91668 581.1807 0.3411112 40.00114 60.00988
56.95000 581.5146 0.3409656 39.99340 60.00006
56.98332 581.8476 0.3408197 40.00294 59.99196
57.01668 582.1820 0.3406956 40.00418 60.00996
57.05000 582.5170 0.3409016 39.99825 59.98861
57.08332 582.8508 0.3405806 40.00828 60.00276
57.11666 583.1822 0.3402203 39.99405 60.00722
57.15000 583.5158 0.3399772 39.99374 59.99494
57.18334 583.8489 0.3397047 40.00174 59.99536
57.21668 584.1836 0.3397959 40.00539 60.00084
57.25000 584.5182 0.3401764 40.00300 60.00251
57.28332 584.8514 0.3399555 39.99834 59.99556
57.31666 585.1852 0.3396545 39.98266 59.99484
57.35000 585.5222 0.3397787 40.00644 60.01376
57.38334 585.8564 0.3399626 40.00093 59.98855
57.41668 586.1879 0.3396625 40.01221 59.99997
57.45000 586.5180 0.3392590 39.99495 60.00429
57.48332 586.8504 0.3391391 39.98816 60.00903
57.51668 587.1826 0.3389361 40.00294 60.00076
57.55000 587.5156 0.3387512 40.00582 59.98768
57.58332 587.8490 0.3385816 39.99841 60.01182
57.61666 588.1860 0.3387974 39.98785 59.99908
57.65000 588.5190 0.3387456 40.01365 60.00144
57.68334 588.8547 0.3384076 39.98862 60.00172
57.71668 589.1884 0.3385612 40.01636 59.99406
57.75000 589.5212 0.3384248 39.98897 60.00605
57.78332 589.8584 0.3383635 40.01220 59.99014
57.81666 590.1997 0.3396525 39.98683 60.01155
57.85000 590.5308 0.3393550 40.01816 59.97474
57.88334 590.8570 0.3382134 39.98959 60.02139
57.91668 591.1834 0.3374836 39.98692 60.00203
57.95000 591.5110 0.3368041 40.01928 59.98297
57.98332 591.8444 0.3365982 39.98465 60.01438
58.01668 592.1875 0.3377841 40.01882 59.98492
58.05000 592.5266 0.3382362 39.99460 60.01120
58.08332 592.8625 0.3381168 40.00342 59.99272
58.11666 593.2022 0.3385440 39.99544 59.99860
58.15000 593.5354 0.3386555 40.00357 60.00707
58.18334 593.8662 0.3381024 39.99230 59.99855
58.21668 594.1959 0.3380325 39.99534 60.00340
58.25000 594.5238 0.3375567 40.00199 60.00250
58.28332 594.8520 0.3368490 40.00569 59.99248
58.31666 595.1843 0.3365884 40.00140 60.00080
58.35000 595.5208 0.3369034 39.99248 60.00650
