CLOSED
Version	1.0
Language	English
Run	1
RunSerial	821
Instrument	TGA Q500 V6.7 Build 203
Module	TGA
InstSerial	0500-0499
Operator	at615
File	C:\TA\Data\TGA\ak794\anders\ZIF8cellulosesponge1.001
FurnaceType	Standard
Sample	ZIF8 cellulose sponge in air 1
Size	5.56500	mg
ProcName
Method	
Comment	
Xcomment	Pan: Platinum
Xcomment	Gas1: Air
Xcomment	Gas2: Air
Xcomment	Balance Gas: Air 40.0 ml/min
Xcomment	Sample Gas: Air 60.0 ml/min
Text	Cellulose sponge and zif8 degradation in air
Kcell	1.00000
TempCal	3	pts	20.00	20.00,364.00	356.00,776.00	770.00
InstCalDate	Weight Date 2013-03-01 10:10:44
Controls	Gas 2  Event Off  Sampling 2.0
Nsig	5
Sig1	Time (min)
Sig2	Temperature (°C)
Sig3	Weight (mg)
Sig4	Balance Purge Flow (mL/min)
Sig5	Sample Purge Flow (mL/min)
AirCoolTime	20.0 min
AutoAnalysis	Off
MacroFile
Date	2013-03-11
Time	13:44:24
OrgMethod	1: Ramp 10.00 °C/min to 600.00 °C
OrgFile	C:\Users\AIM_Group\Desktop\post doc cambridge\Students files\Internships\Anders\anders tga\anders\ZIF8cellulosesponge sample 1.001
.001116667 17.77372 5.565514 40.00012 60.00007
0.01666667 17.78175 5.565050 40.00084 60.00713
0.05000000 17.80943 5.564350 39.99631 59.99060
0.08333334 17.86082 5.565111 39.98916 60.00380
0.1166666 17.94139 5.564332 40.00913 59.99318
0.1500000 18.04581 5.563663 40.00936 59.99555
0.1833334 18.17238 5.563886 39.98192 60.01526
0.2166667 18.31864 5.563582 40.01675 59.99197
0.2500000 18.48250 5.562230 39.99761 60.00830
0.2833333 18.66335 5.561826 39.98306 59.99429
0.3166666 18.85794 5.561711 40.00238 60.00250
0.3500000 19.06499 5.561269 40.01736 60.00576
0.3833333 19.28150 5.560813 39.98317 59.99638
0.4166666 19.51164 5.560121 40.01721 59.99044
0.4500000 19.74898 5.559549 39.97790 60.01428
0.4833333 19.99469 5.558926 40.02076 59.98938
0.5166666 20.24968 5.557930 39.99712 59.99256
0.5500000 20.50963 5.557342 40.00324 59.99969
0.5833332 20.77583 5.557201 39.98164 60.01944
0.6166668 21.05084 5.556287 40.00170 59.99676
0.6500000 21.32893 5.555896 40.00752 59.99500
0.6833334 21.61418 5.555236 40.00048 60.00850
0.7166666 21.90124 5.554429 40.00765 59.98238
0.7500000 22.19432 5.553803 39.99830 60.01376
0.7833334 22.49024 5.553132 39.98710 59.99946
0.8166668 22.79062 5.552406 40.01215 59.98945
0.8500000 23.09453 5.551607 39.99658 59.99945
0.8833332 23.40106 5.550778 40.00372 60.00395
0.9166668 23.70913 5.550338 39.99102 60.01016
0.9500000 24.02058 5.550049 40.00548 59.98590
0.9833334 24.33256 5.549443 40.00294 60.01146
1.016667 24.64798 5.548297 40.00150 59.98972
1.050000 24.96567 5.546976 39.99810 59.99800
1.083334 25.28336 5.546023 39.99618 60.00572
1.116667 25.60343 5.545135 40.00120 59.99708
1.150000 25.92456 5.544884 39.99038 60.01065
1.183333 26.24602 5.544495 40.01191 59.99403
1.216667 26.56818 5.544068 39.99425 60.01178
1.250000 26.88994 5.543004 40.01150 59.98406
1.283333 27.21241 5.542436 39.99332 59.99842
1.316667 27.53656 5.541298 39.99997 60.00239
1.350000 27.85965 5.540440 39.99193 60.00879
1.383333 28.18516 5.540095 40.00162 59.99150
1.416666 28.50882 5.539082 40.00056 60.00459
1.450000 28.83330 5.538472 40.00776 60.00092
1.483334 29.15779 5.537617 39.99969 59.99343
1.516666 29.48340 5.536485 39.99025 60.00922
1.550000 29.80665 5.535877 40.00672 59.99620
1.583334 30.13295 5.535164 39.99460 60.00219
1.616666 30.45691 5.534320 40.00424 59.99479
1.650000 30.78115 5.533544 40.00237 60.00230
1.683333 31.10476 5.533028 39.99510 60.00080
1.716667 31.42896 5.532774 40.00112 60.00594
1.750000 31.75260 5.532144 40.00580 59.98934
1.783333 32.07725 5.531526 40.00235 60.00176
1.816667 32.40106 5.530818 39.99355 60.00810
1.850000 32.72429 5.529781 40.00668 59.99074
1.883334 33.04635 5.528884 39.99104 59.99785
1.916666 33.37052 5.528402 40.00364 60.00766
1.950000 33.69185 5.527695 39.98984 59.99746
1.983334 34.01523 5.526850 40.01200 59.99098
2.016666 34.33760 5.526295 39.99166 60.01106
2.050000 34.66000 5.525300 39.99791 60.00857
2.083333 34.98087 5.524532 40.00456 59.98759
2.116666 35.30414 5.523936 39.99848 60.00490
2.150000 35.62633 5.523680 40.00240 60.00110
2.183334 35.94872 5.523444 40.00552 59.99814
2.216667 36.27094 5.522787 39.99788 59.99780
2.250000 36.59296 5.522248 39.99799 60.00377
2.283333 36.91519 5.521739 40.00456 59.99484
2.316666 37.23584 5.521143 39.99872 59.99340
2.350000 37.55948 5.520536 39.98727 60.00347
2.383334 37.87900 5.519911 40.01864 60.00921
2.416667 38.20196 5.519363 39.99332 59.98774
2.450000 38.52340 5.518925 39.99411 60.00838
2.483334 38.84410 5.518472 40.00820 59.99072
2.516666 39.16700 5.517921 40.00269 60.00376
2.550000 39.48971 5.517373 39.99714 60.02227
2.583333 39.81291 5.516708 39.99655 59.98414
2.616666 40.13348 5.516349 39.99369 60.00210
2.650000 40.45702 5.516059 40.00464 59.99039
2.683334 40.78006 5.515510 40.00366 59.99590
2.716667 41.10354 5.515046 40.00302 60.00416
2.750000 41.42567 5.514543 39.99856 60.00539
2.783333 41.74934 5.514111 39.99103 59.98870
2.816666 42.07258 5.513734 39.99880 60.01560
2.850000 42.39584 5.513369 40.01063 59.99001
2.883334 42.71902 5.513012 39.99794 59.99666
2.916667 43.04227 5.512737 40.00216 60.00289
2.950000 43.36584 5.512352 39.99072 60.00946
2.983334 43.69052 5.511778 40.01361 59.98956
3.016666 44.01528 5.511204 39.97625 60.01548
3.050000 44.33859 5.510680 40.00500 59.99853
3.083333 44.66361 5.510224 39.99866 59.99032
3.116666 44.98838 5.509930 40.01002 59.99634
3.150000 45.31291 5.509639 40.00480 60.00590
3.183334 45.63835 5.509290 39.98355 60.00952
3.216667 45.96372 5.508831 40.01836 60.00031
3.250000 46.28994 5.508824 40.00208 59.98848
3.283333 46.61608 5.508906 40.00113 60.00672
3.316666 46.94169 5.508522 39.98588 60.00343
3.350000 47.26758 5.508049 39.99376 59.99668
3.383334 47.59439 5.507766 40.02041 59.98894
3.416667 47.92008 5.507392 40.00008 59.99491
3.450000 48.24666 5.507074 39.99924 60.00891
3.483333 48.57302 5.506529 39.97890 60.00940
3.516667 48.89981 5.506250 40.00730 59.99560
3.550000 49.22656 5.505957 40.00197 59.99138
3.583333 49.55628 5.505503 40.00325 60.00242
3.616666 49.88233 5.505222 39.99624 60.01404
3.650000 50.21028 5.504800 40.00914 59.98438
3.683334 50.53842 5.504700 39.98735 60.00660
3.716667 50.86660 5.504350 40.00319 59.98723
3.750000 51.19363 5.503968 40.00527 60.00220
3.783333 51.52272 5.503693 39.99846 60.00644
3.816666 51.85166 5.503434 39.99752 59.99120
3.850000 52.17954 5.503175 40.00447 60.01584
3.883334 52.50954 5.503010 39.99648 59.99430
3.916667 52.83829 5.502884 40.00560 60.00121
3.950000 53.16846 5.503280 39.99110 59.99780
3.983333 53.49970 5.503374 40.00306 60.00814
4.016667 53.82900 5.502979 40.00602 59.99490
4.050000 54.15729 5.502074 39.98960 60.00149
4.083334 54.48599 5.501906 40.00646 59.99770
4.116667 54.81761 5.501694 40.00116 60.00540
4.150000 55.14826 5.501574 39.99280 59.99726
4.183334 55.47683 5.501331 40.01058 59.99154
4.216667 55.80660 5.501052 39.99764 60.00168
4.250000 56.13820 5.500662 39.99232 60.00701
4.283333 56.46709 5.500284 40.01495 60.00620
4.316666 56.79720 5.500063 39.98606 59.98688
4.350000 57.12816 5.499785 40.00196 60.00642
4.383333 57.45826 5.499794 39.99581 59.99600
4.416666 57.79100 5.499734 40.00150 60.00004
4.450000 58.12193 5.499458 39.99794 60.00416
4.483333 58.45250 5.499117 39.99826 59.99490
4.516667 58.78371 5.498730 39.99768 59.99962
4.550000 59.11516 5.498608 40.00342 59.99594
4.583334 59.44668 5.498738 40.00387 60.00298
4.616667 59.77921 5.498533 39.99915 60.01135
4.650000 60.11028 5.498004 40.01250 59.99090
4.683334 60.44307 5.497994 39.99206 60.00620
4.716667 60.77574 5.498180 40.00223 59.98524
4.750000 61.10608 5.497736 40.00082 60.00213
4.783333 61.43882 5.497521 39.99161 60.01228
4.816666 61.77119 5.497226 40.00133 59.99755
4.850000 62.10262 5.497182 40.00642 59.99324
4.883333 62.43444 5.496871 40.00148 60.00754
4.916666 62.76687 5.496557 39.99309 59.99563
4.950000 63.09814 5.496550 40.00787 60.00432
4.983333 63.43086 5.496050 39.99998 60.00085
5.016667 63.76407 5.496353 39.99830 59.99594
5.050000 64.09626 5.496318 39.99334 59.99580
5.083334 64.42957 5.495895 40.00402 60.00489
5.116667 64.76285 5.495722 40.00053 59.99922
5.150000 65.09405 5.495363 39.99363 59.99718
5.183334 65.42628 5.495045 40.00680 60.00651
5.216667 65.75812 5.494992 39.99976 59.99932
5.250000 66.09245 5.494859 39.99498 59.99970
5.283332 66.42450 5.494511 40.00502 59.98831
5.316666 66.75658 5.494143 39.99756 60.01498
5.350000 67.08868 5.494090 39.99838 59.98876
5.383332 67.42296 5.494234 40.00350 60.00533
5.416666 67.75679 5.494186 39.99484 60.00478
5.450000 68.08954 5.493900 40.00022 60.00016
5.483332 68.42188 5.493429 39.99948 59.99312
5.516668 68.75396 5.493038 40.00206 60.00603
5.550000 69.08687 5.492978 40.00045 59.99180
5.583334 69.42224 5.493345 40.00408 60.00842
5.616668 69.75647 5.493277 40.00235 60.00245
5.650000 70.09003 5.493046 39.99980 59.99470
5.683334 70.42274 5.492516 39.99928 60.00344
5.716668 70.75528 5.491894 39.99242 59.99314
5.750000 71.08768 5.491615 39.99782 59.99446
5.783332 71.42068 5.491765 40.00862 60.00630
5.816666 71.75476 5.491734 39.99728 59.99540
5.850000 72.08921 5.491428 39.99667 60.01822
5.883332 72.42155 5.490920 40.00676 59.98364
5.916666 72.75537 5.490856 40.00048 60.00579
5.950000 73.08918 5.491201 39.99172 60.00340
5.983332 73.42490 5.491390 40.00124 59.99887
6.016668 73.75724 5.490746 40.00432 60.00190
6.050000 74.09050 5.490144 40.00466 59.99922
6.083334 74.42369 5.489979 39.98937 60.00090
6.116668 74.75740 5.489998 40.00634 59.99834
6.150000 75.09086 5.489292 40.00302 59.99465
6.183334 75.42194 5.488819 39.99736 59.99966
6.216668 75.75550 5.488899 39.99016 59.99810
6.250000 76.08690 5.488128 40.00300 60.00710
6.283332 76.42072 5.488055 40.01056 60.00515
6.316666 76.75601 5.488256 40.00072 59.98924
6.350000 77.08931 5.488010 39.99305 59.99820
6.383332 77.42221 5.487451 39.99610 59.99989
6.416666 77.75534 5.487190 40.00469 60.01085
6.450000 78.08936 5.487280 39.99584 59.99824
6.483332 78.42362 5.487050 39.99984 59.99672
6.516668 78.75735 5.486688 40.00190 60.00225
6.550000 79.09094 5.486437 40.00392 59.99250
6.583334 79.42494 5.486118 39.99823 60.01006
6.616668 79.75903 5.485848 40.00630 59.99756
6.650000 80.09270 5.485908 39.98404 59.99560
6.683334 80.42656 5.485446 39.99887 60.01050
6.716666 80.76126 5.485489 40.00946 59.98484
6.750000 81.09392 5.484716 39.99387 60.01408
6.783334 81.42786 5.484585 40.01567 59.98776
6.816666 81.76151 5.484468 39.97922 59.99711
6.850000 82.09566 5.484000 40.02146 60.00800
6.883332 82.42892 5.483606 39.99205 59.99490
6.916666 82.76100 5.482919 40.00852 60.00706
6.950000 83.09184 5.482331 39.98015 59.98791
6.983332 83.42613 5.482144 40.01989 60.01702
7.016668 83.76030 5.482166 39.99712 59.97951
7.050000 84.09449 5.481984 39.98610 60.01562
7.083334 84.42851 5.481762 40.01934 59.99414
7.116668 84.76246 5.481482 39.99756 59.99406
7.150000 85.09601 5.481021 39.99818 60.01401
7.183334 85.43026 5.480722 40.00108 59.99742
7.216666 85.76316 5.480212 39.98148 59.99382
7.250000 86.09559 5.479717 40.01322 59.99748
7.283334 86.42851 5.479066 39.99562 60.00544
7.316666 86.76089 5.478389 39.99260 59.99433
7.350000 87.09431 5.478166 40.00400 60.01215
7.383332 87.42772 5.477900 40.00302 59.98976
7.416666 87.76150 5.477518 39.98846 60.00452
7.450000 88.09590 5.477213 40.00587 59.99306
7.483332 88.42969 5.477022 39.99436 59.99850
7.516668 88.76444 5.476720 40.01976 59.99820
7.550000 89.09862 5.476265 39.99212 60.00410
7.583334 89.43178 5.475610 40.00835 60.00097
7.616668 89.76400 5.474902 39.99170 60.00732
7.650000 90.09812 5.474553 40.00024 59.99531
7.683334 90.43399 5.474370 40.00083 59.99698
7.716666 90.76551 5.473426 39.99441 60.00168
7.750000 91.09928 5.473096 40.00199 60.00587
7.783334 91.43194 5.472472 40.00625 59.99982
7.816666 91.76509 5.472200 39.99069 59.99907
7.850000 92.09930 5.471787 40.00406 59.99492
7.883332 92.43326 5.471172 39.99570 60.00031
7.916666 92.76641 5.470606 40.00294 59.99832
7.950000 93.10058 5.470011 40.00108 60.00012
7.983332 93.43414 5.469670 40.00662 59.99407
8.016666 93.76828 5.469096 40.00296 60.00615
8.050000 94.10192 5.468545 39.99221 60.00234
8.083332 94.43614 5.468011 39.99472 59.99213
8.116668 94.77047 5.467585 40.00548 60.00449
8.150000 95.10348 5.466865 40.00206 60.00986
8.183334 95.43548 5.466000 39.99082 59.98888
8.216666 95.76962 5.465320 40.00683 60.01124
8.250000 96.10342 5.464864 39.99863 59.98446
8.283334 96.43553 5.463979 40.00588 60.01539
8.316666 96.77006 5.463778 39.99115 59.99654
8.350000 97.10320 5.462609 40.00386 60.00410
8.383332 97.43562 5.461656 40.00325 59.98650
8.416668 97.76831 5.461294 39.99474 60.00470
8.450000 98.10172 5.460579 39.99833 60.00299
8.483334 98.43631 5.460003 40.00914 60.00430
8.516666 98.77003 5.459363 39.99036 59.99318
8.550000 99.10300 5.458630 40.01160 59.99930
8.583332 99.43725 5.457879 39.99544 60.00493
8.616668 99.77045 5.457299 40.00406 60.00212
8.650000 100.1045 5.456524 39.99421 59.99328
8.683334 100.4389 5.455889 39.99676 60.00159
8.716666 100.7733 5.455376 40.00506 60.01118
8.750000 101.1058 5.454356 39.99618 59.98721
8.783334 101.4389 5.453043 40.00494 60.00393
8.816666 101.7688 5.451783 39.99714 59.99514
8.850000 102.1029 5.451191 39.99472 60.01060
8.883332 102.4371 5.450739 40.01118 59.99672
8.916668 102.7700 5.449551 39.99342 59.99516
8.950000 103.1027 5.448604 39.99752 59.99701
8.983334 103.4360 5.447930 40.00108 60.00176
9.016666 103.7688 5.446794 39.99861 60.00239
9.050000 104.1023 5.446192 40.00737 59.99468
9.083332 104.4376 5.445115 40.00096 60.00117
9.116668 104.7697 5.443829 39.99678 60.00500
9.150000 105.1045 5.443075 39.99634 59.99741
9.183334 105.4385 5.442200 40.00730 60.00151
9.216666 105.7721 5.441391 39.99912 60.01330
9.250000 106.1072 5.440527 40.00620 59.99671
9.283334 106.4393 5.439161 39.98362 59.98970
9.316666 106.7727 5.437926 40.00358 60.00356
9.350000 107.1049 5.436671 40.00920 59.99355
9.383332 107.4355 5.435293 39.99635 59.99717
9.416668 107.7677 5.434067 39.99653 60.00993
9.450000 108.1014 5.433310 39.99740 59.99160
9.483334 108.4358 5.432597 39.99905 60.00280
9.516666 108.7710 5.431624 40.00820 60.00835
9.550000 109.1054 5.430570 39.99282 59.99176
9.583332 109.4380 5.429132 39.99716 60.00996
9.616668 109.7707 5.427592 40.00704 60.00016
9.650000 110.1026 5.426168 39.99734 59.99326
9.683334 110.4354 5.424952 39.99756 59.99658
9.716666 110.7692 5.423876 40.00008 59.99661
9.750000 111.1001 5.422641 39.99847 60.00279
9.783334 111.4346 5.421432 40.00295 60.00562
9.816666 111.7659 5.419688 40.00298 59.99506
9.850000 112.0977 5.418028 40.00711 60.00468
9.883332 112.4334 5.417166 39.98804 59.99584
9.916668 112.7685 5.416192 39.99698 60.00639
9.950000 113.1062 5.415574 40.00796 59.99730
9.983334 113.4393 5.413531 40.00327 59.99982
10.01667 113.7713 5.411604 39.99014 59.99521
10.05000 114.1062 5.410474 40.00669 60.01004
10.08333 114.4398 5.409052 39.99176 59.98946
10.11667 114.7734 5.407612 40.00857 60.00300
10.15000 115.1057 5.405761 40.00084 60.00388
10.18333 115.4389 5.404268 39.99964 60.00239
10.21667 115.7719 5.402786 40.00352 59.99350
10.25000 116.1064 5.401470 39.98887 60.00244
10.28333 116.4399 5.399842 40.01065 60.00368
10.31667 116.7731 5.398250 39.99709 59.99340
10.35000 117.1061 5.396680 40.00218 60.00906
10.38333 117.4393 5.394894 39.98830 59.99662
10.41667 117.7735 5.393165 40.01203 60.00410
10.45000 118.1075 5.391660 39.99284 59.99363
10.48333 118.4392 5.389758 39.99930 59.99542
10.51666 118.7728 5.387898 40.00080 60.01162
10.55000 119.1062 5.386426 39.99604 59.99452
10.58333 119.4415 5.384749 40.00903 60.00110
10.61667 119.7733 5.382632 39.99968 59.99561
10.65000 120.1050 5.380630 39.98967 59.99399
10.68334 120.4388 5.378952 40.01160 59.99974
10.71666 120.7736 5.377461 39.99426 60.00830
10.75000 121.1084 5.375658 39.99843 59.99238
10.78334 121.4402 5.373472 40.00738 60.01143
10.81666 121.7727 5.371458 40.00368 59.98896
10.85000 122.1056 5.369545 39.98755 59.99810
10.88333 122.4378 5.367526 40.01101 59.99650
10.91667 122.7724 5.365682 39.98618 60.00132
10.95000 123.1050 5.363650 40.00574 60.00750
10.98334 123.4369 5.361572 39.99689 59.99361
11.01666 123.7693 5.359442 40.00980 60.01580
11.05000 124.1033 5.357434 39.99993 59.98800
11.08333 124.4377 5.355464 40.00098 60.01038
11.11667 124.7688 5.353230 39.98713 59.98728
11.15000 125.1019 5.351130 40.00079 59.99812
11.18334 125.4346 5.348898 40.01480 60.01264
11.21666 125.7674 5.346597 39.99378 59.99687
11.25000 126.1000 5.344629 39.98884 59.99594
11.28334 126.4352 5.342703 40.01224 60.00768
11.31666 126.7700 5.340496 40.00030 59.99769
11.35000 127.1017 5.337949 40.00286 60.00248
11.38333 127.4354 5.335559 39.99512 60.00019
11.41667 127.7687 5.333480 39.99516 59.99258
11.45000 128.1029 5.331477 40.00395 60.00040
11.48334 128.4383 5.329234 40.00442 60.01130
11.51666 128.7708 5.326600 39.99170 59.98670
11.55000 129.1036 5.324249 40.01402 59.99683
11.58333 129.4400 5.322308 39.99724 60.01714
11.61667 129.7730 5.319656 39.99708 59.99928
11.65000 130.1081 5.317555 40.00204 60.00079
11.68334 130.4407 5.314934 40.00174 59.98572
11.71666 130.7724 5.311907 39.99626 59.99405
11.75000 131.1026 5.309171 39.98516 60.00432
11.78334 131.4333 5.306679 40.00806 60.00744
11.81666 131.7669 5.304455 39.99297 59.99719
11.85000 132.0989 5.301804 40.00832 59.99492
11.88333 132.4324 5.299485 40.01083 60.03113
11.91667 132.7663 5.296900 39.97800 59.96684
11.95000 133.0988 5.294114 40.02535 60.01476
11.98334 133.4313 5.291476 39.98540 59.98962
12.01666 133.7646 5.288790 40.00522 60.00129
12.05000 134.0975 5.285948 39.98458 59.98926
12.08333 134.4331 5.283709 40.00422 60.01242
12.11667 134.7686 5.281440 40.00370 59.99541
12.15000 135.1036 5.278675 40.01178 60.01650
12.18334 135.4363 5.275395 40.00316 59.99693
12.21666 135.7642 5.272170 39.99475 59.98728
12.25000 136.0964 5.269310 39.99788 59.99816
12.28334 136.4283 5.266870 39.99907 60.01500
12.31666 136.7619 5.264262 40.00583 59.98814
12.35000 137.0953 5.261270 39.98552 60.00957
12.38333 137.4274 5.258407 40.00236 59.98948
12.41667 137.7614 5.255962 40.00868 60.00056
12.45000 138.1001 5.253950 39.99408 59.99688
12.48334 138.4377 5.251210 39.99110 59.99791
12.51666 138.7712 5.248072 40.00334 60.00666
12.55000 139.1047 5.245132 40.01683 59.99400
12.58333 139.4372 5.241991 39.99664 60.01807
12.61667 139.7684 5.238830 39.98396 59.99380
12.65000 140.1012 5.236026 39.99881 59.98970
12.68334 140.4362 5.233202 40.01606 60.00288
12.71666 140.7661 5.229776 39.99572 59.99810
12.75000 141.0965 5.226730 40.00007 59.99750
12.78334 141.4271 5.223836 39.99145 60.00025
12.81667 141.7596 5.220933 40.00544 60.01116
12.85000 142.0925 5.218052 39.99469 59.98930
12.88333 142.4260 5.215031 39.99509 60.00910
12.91667 142.7604 5.212303 40.01903 60.00250
12.95000 143.0930 5.209130 39.99184 59.99043
12.98334 143.4239 5.205774 39.99644 59.99989
13.01666 143.7595 5.203404 40.00882 59.99659
13.05000 144.0984 5.201322 40.00188 60.01391
13.08333 144.4348 5.198464 39.98541 59.99004
13.11667 144.7689 5.195076 40.01480 60.00499
13.15000 145.1024 5.191848 39.99200 59.99899
13.18333 145.4352 5.188683 40.00234 60.01198
13.21666 145.7681 5.185711 40.00653 59.99664
13.25000 146.0988 5.182383 39.98737 59.99377
13.28334 146.4311 5.179402 40.00785 59.99840
13.31667 146.7627 5.176243 40.00110 60.01060
13.35000 147.0939 5.173152 39.99420 59.99488
13.38333 147.4275 5.170210 40.00582 60.00362
13.41667 147.7620 5.167463 39.99833 60.00015
13.45000 148.0946 5.164314 39.99398 59.99226
13.48334 148.4255 5.161024 39.99898 60.00141
13.51666 148.7605 5.158586 39.99972 59.99982
13.55000 149.0949 5.155790 40.00262 60.00485
13.58333 149.4263 5.152314 40.00408 59.99711
13.61667 149.7596 5.149395 39.99969 59.99657
13.65000 150.0922 5.146346 40.00061 59.99176
13.68333 150.4241 5.143222 40.00439 60.00424
13.71666 150.7555 5.140066 39.98700 60.00707
13.75000 151.0896 5.137329 40.00459 59.99938
13.78334 151.4252 5.134809 40.00247 59.99438
13.81667 151.7606 5.132139 39.99828 60.00341
13.85000 152.0943 5.129032 40.01169 60.00369
13.88333 152.4276 5.126110 39.99422 59.99459
13.91667 152.7605 5.122920 39.98962 60.00076
13.95000 153.0934 5.119924 40.01245 60.00474
13.98334 153.4274 5.117123 39.99716 59.99560
14.01666 153.7603 5.114172 39.99780 59.99642
14.05000 154.0901 5.110814 40.00036 60.01118
14.08333 154.4208 5.107824 40.00082 59.99360
14.11667 154.7539 5.105102 39.99262 60.00222
14.15000 155.0886 5.102570 40.01238 60.00447
14.18333 155.4224 5.100011 39.99612 59.99762
14.21666 155.7582 5.097574 39.99105 59.99026
14.25000 156.0927 5.094989 40.00186 59.99912
14.28334 156.4258 5.091879 40.00519 60.00299
14.31667 156.7580 5.088691 40.00615 60.00550
14.35000 157.0884 5.085538 39.99575 60.00454
14.38333 157.4198 5.082806 39.99336 59.99264
14.41667 157.7544 5.080494 40.00578 59.99361
14.45000 158.0878 5.078082 39.99422 60.00337
14.48334 158.4215 5.075290 40.00410 60.00408
14.51666 158.7530 5.072372 39.99308 59.99954
14.55000 159.0863 5.069742 40.01360 59.99150
14.58333 159.4216 5.067410 39.99175 60.01270
14.61667 159.7563 5.065054 39.99844 59.99232
14.65000 160.0899 5.062332 40.00615 60.00850
14.68333 160.4249 5.059941 39.99813 59.99093
14.71666 160.7583 5.057346 39.99713 59.99676
14.75000 161.0901 5.054591 39.99781 60.00506
14.78334 161.4240 5.052240 40.00840 60.00190
14.81667 161.7569 5.049658 39.99360 60.00399
14.85000 162.0883 5.046922 39.99889 59.99260
14.88333 162.4208 5.044430 40.00110 59.99503
14.91667 162.7542 5.042042 39.99561 60.00780
14.95000 163.0866 5.039680 39.99731 59.99414
14.98334 163.4202 5.037366 40.00177 60.00247
15.01666 163.7528 5.035007 40.00898 60.00347
15.05000 164.0850 5.032553 39.99364 59.99920
15.08333 164.4183 5.030339 40.00221 59.99590
15.11667 164.7534 5.028316 40.00287 60.00720
15.15000 165.0877 5.026132 40.00596 59.99885
15.18333 165.4220 5.023808 39.99559 60.00510
15.21666 165.7555 5.021516 40.00189 60.00020
15.25000 166.0853 5.019019 39.99803 59.99966
15.28334 166.4146 5.016350 40.01335 59.99325
15.31667 166.7460 5.013932 39.98529 59.99412
15.35000 167.0775 5.012135 39.99985 60.00370
15.38333 167.4127 5.010704 39.99648 60.00007
15.41667 167.7492 5.009140 39.99628 60.00347
15.45000 168.0846 5.007011 40.00925 60.00294
15.48334 168.4166 5.004437 39.99956 60.00150
15.51666 168.7472 5.001903 39.99920 59.99442
15.55000 169.0785 4.999866 40.00152 59.99626
15.58333 169.4106 4.997848 39.99906 60.00006
15.61667 169.7432 4.995922 40.00020 60.01088
15.65000 170.0766 4.993972 39.99654 59.99571
15.68333 170.4090 4.992148 39.99768 60.00044
15.71666 170.7437 4.990410 39.99628 59.98972
15.75000 171.0788 4.988724 40.01154 60.01452
15.78334 171.4131 4.986834 39.99066 59.99336
15.81667 171.7456 4.984764 40.00260 59.99372
15.85000 172.0807 4.983047 39.99650 60.01605
15.88333 172.4142 4.981312 40.00842 59.98544
15.91667 172.7453 4.979381 39.98904 60.00037
15.95000 173.0788 4.977559 40.01246 60.00919
15.98334 173.4119 4.975926 39.98996 59.99516
16.01666 173.7439 4.973911 40.00607 59.99529
16.05000 174.0774 4.972344 39.99468 59.99664
16.08334 174.4117 4.970810 40.00750 60.01156
16.11667 174.7441 4.969062 39.99130 59.99318
16.15000 175.0770 4.967172 40.00205 60.00624
16.18333 175.4089 4.965524 39.99948 60.00082
16.21667 175.7424 4.963835 39.99980 59.98758
16.25000 176.0763 4.962384 40.00296 60.01614
16.28333 176.4067 4.960326 40.00133 59.98834
16.31667 176.7428 4.959164 40.00366 60.00729
16.35000 177.0824 4.958519 39.99375 60.00434
16.38333 177.4149 4.956476 40.00688 59.99390
16.41666 177.7482 4.954604 39.99947 60.00445
16.45000 178.0827 4.953232 39.99605 59.99491
16.48334 178.4124 4.950982 40.00545 60.00305
16.51666 178.7470 4.949748 39.98991 59.98746
16.55000 179.0789 4.948050 40.00116 60.01860
16.58334 179.4086 4.946030 40.00074 59.99739
16.61667 179.7402 4.944414 39.99986 59.99224
16.65000 180.0730 4.942869 40.00148 60.00007
16.68333 180.4064 4.941709 39.99650 59.99988
16.71667 180.7426 4.940683 40.01130 60.00596
16.75000 181.0762 4.938970 39.99634 59.99189
16.78333 181.4087 4.936970 40.00114 60.00354
16.81667 181.7400 4.935300 40.00414 59.99590
16.85000 182.0768 4.934264 39.98596 60.00000
16.88333 182.4100 4.932627 40.00693 60.00528
16.91666 182.7435 4.930900 39.99472 59.99870
16.95000 183.0758 4.929424 40.00545 59.99434
16.98334 183.4090 4.927618 39.99580 60.00986
17.01666 183.7428 4.926262 40.00738 59.99334
17.05000 184.0754 4.924574 39.99638 60.00800
17.08334 184.4078 4.922680 40.00706 59.99392
17.11667 184.7406 4.921242 39.98862 59.99742
17.15000 185.0722 4.919498 40.01806 60.00466
17.18333 185.4051 4.917969 39.98946 60.00059
17.21667 185.7394 4.916630 39.99930 59.99023
17.25000 186.0744 4.915218 39.99058 60.01304
17.28333 186.4088 4.913566 40.00432 59.98701
17.31667 186.7399 4.911436 40.00440 60.00750
17.35000 187.0718 4.909596 39.99324 59.99534
17.38333 187.4045 4.908172 39.99798 59.99945
17.41666 187.7381 4.906574 39.99891 60.00274
17.45000 188.0723 4.905163 40.00760 60.00734
17.48334 188.4050 4.903290 39.99260 59.99514
17.51666 188.7370 4.901538 40.01033 60.00380
17.55000 189.0726 4.900204 40.00011 59.99072
17.58334 189.4101 4.899058 39.99500 60.00244
17.61667 189.7428 4.897009 39.99683 60.00262
17.65000 190.0751 4.895003 40.00222 59.98800
17.68333 190.4063 4.893082 39.99630 60.00426
17.71667 190.7383 4.891434 40.00294 60.01436
17.75000 191.0701 4.889468 39.99551 59.99578
17.78333 191.4013 4.887674 40.00168 60.00615
17.81667 191.7336 4.886060 40.00334 59.99506
17.85000 192.0696 4.884726 39.99732 59.98994
17.88333 192.4066 4.883546 39.99999 60.01967
17.91666 192.7390 4.881482 40.00192 59.98100
17.95000 193.0716 4.879236 40.00150 59.99993
17.98334 193.4010 4.877180 40.00392 60.00582
18.01666 193.7352 4.875613 39.98770 59.99028
18.05000 194.0727 4.874508 40.00286 60.01704
18.08334 194.4060 4.872586 40.00578 59.99543
18.11667 194.7380 4.870507 39.99168 59.99590
18.15000 195.0688 4.868286 40.01269 60.00176
18.18333 195.4006 4.866640 39.99259 59.99604
18.21667 195.7367 4.865170 40.01190 59.99765
18.25000 196.0723 4.863562 39.98550 60.00766
18.28333 196.4041 4.861340 40.00500 59.99234
18.31667 196.7379 4.859634 40.00564 60.00137
18.35000 197.0727 4.857828 39.99730 59.99882
18.38333 197.4054 4.855984 40.00244 60.00352
18.41666 197.7372 4.853826 39.98978 59.99826
18.45000 198.0675 4.851776 40.01169 60.00420
18.48334 198.3977 4.849546 40.00120 60.00945
18.51666 198.7263 4.847248 39.99404 59.98548
18.55000 199.0564 4.845230 40.00441 59.99800
18.58334 199.3894 4.843669 39.98727 59.99941
18.61667 199.7204 4.841491 40.00818 60.00928
18.65000 200.0532 4.839534 40.00347 59.99692
18.68333 200.3869 4.837930 39.99081 59.99343
18.71667 200.7264 4.836694 40.00309 60.00455
18.75000 201.0706 4.835974 39.99938 60.01018
18.78333 201.4049 4.833488 40.00035 60.00124
18.81667 201.7307 4.830020 40.01349 59.98000
18.85000 202.0596 4.827520 39.97640 60.01016
18.88333 202.3970 4.826391 40.02338 59.99305
18.91666 202.7305 4.824566 39.98216 60.00848
18.95000 203.0635 4.822360 40.01415 59.99578
18.98334 203.3960 4.820356 39.98172 60.00204
19.01666 203.7285 4.818258 40.02080 60.00528
19.05000 204.0634 4.816468 39.99731 60.00272
19.08334 204.3967 4.814386 40.00373 59.99156
19.11667 204.7320 4.812656 40.00222 60.00320
19.15000 205.0661 4.810504 39.98733 59.98970
19.18333 205.3934 4.807402 40.01839 60.01406
19.21667 205.7296 4.806012 39.99207 59.98647
19.25000 206.0589 4.803414 39.98472 60.01509
19.28333 206.3916 4.801322 40.00033 60.00415
19.31667 206.7260 4.799541 40.01260 59.98862
19.35000 207.0635 4.798027 39.98090 60.00340
19.38333 207.4013 4.796222 40.00153 59.99337
19.41666 207.7329 4.793462 40.02183 60.00176
19.45000 208.0649 4.790924 39.99039 59.99209
19.48334 208.3958 4.788798 39.98892 59.99844
19.51666 208.7295 4.786548 40.01914 60.00665
19.55000 209.0610 4.784250 39.99825 60.00060
19.58334 209.3904 4.781585 39.97864 60.00401
19.61667 209.7260 4.779838 40.01125 60.00044
19.65000 210.0586 4.777770 39.99692 60.00844
19.68333 210.3898 4.775183 39.99887 59.98890
19.71667 210.7252 4.773358 40.00122 59.99246
19.75000 211.0625 4.771508 40.01582 60.01972
19.78333 211.3966 4.769348 39.98238 59.98887
19.81667 211.7321 4.767092 40.00928 60.01106
19.85000 212.0630 4.764463 40.00924 59.98576
19.88333 212.3965 4.762154 39.97956 60.01021
19.91666 212.7320 4.760308 40.01178 59.98292
19.95000 213.0686 4.758416 40.00458 60.01443
19.98334 213.3979 4.755430 39.99861 59.99000
20.01666 213.7284 4.752848 40.00145 60.01068
20.05000 214.0596 4.750290 39.98950 59.98711
20.08334 214.3900 4.747967 39.99090 60.01094
20.11667 214.7250 4.746109 40.02398 59.99762
20.15000 215.0590 4.744082 39.98394 60.00194
20.18333 215.3946 4.742098 40.01242 59.98921
20.21667 215.7293 4.739929 39.99368 60.00614
20.25000 216.0666 4.737831 39.98456 60.00419
20.28333 216.3988 4.735236 40.01022 59.99758
20.31667 216.7314 4.732729 39.99100 59.99476
20.35000 217.0656 4.730700 40.01188 60.01477
20.38333 217.4006 4.728558 40.01019 59.99913
20.41666 217.7330 4.726148 40.00010 59.99142
20.45000 218.0672 4.723922 39.99805 60.00062
20.48334 218.4008 4.721801 39.99441 59.99914
20.51666 218.7334 4.719346 40.00219 59.99880
20.55000 219.0648 4.716966 40.00544 59.99953
20.58334 219.3984 4.714818 39.99422 60.00070
20.61667 219.7298 4.712492 39.98846 59.99809
20.65000 220.0613 4.710022 39.99917 59.99382
20.68333 220.3940 4.707871 40.00752 60.01030
20.71667 220.7260 4.705675 40.00302 60.00068
20.75000 221.0588 4.703350 39.99762 59.99652
20.78333 221.3916 4.701278 39.98735 60.00614
20.81667 221.7254 4.699096 40.01112 60.00305
20.85000 222.0590 4.696705 40.00615 60.00043
20.88333 222.3902 4.694431 39.99338 59.99540
20.91666 222.7236 4.692286 40.00534 60.00308
20.95000 223.0562 4.689994 39.98952 59.99760
20.98334 223.3897 4.688024 40.01035 59.98664
21.01666 223.7232 4.685956 39.99525 60.01617
21.05000 224.0562 4.683747 40.00614 59.99321
21.08334 224.3900 4.681656 39.98770 60.00059
21.11667 224.7246 4.679748 40.00662 60.00971
21.15000 225.0593 4.677727 40.00536 59.98990
21.18333 225.3921 4.675470 39.99852 59.99809
21.21667 225.7268 4.673531 40.00468 60.00816
21.25000 226.0601 4.671297 39.98301 59.99185
21.28333 226.3914 4.668956 40.01033 60.00200
21.31667 226.7246 4.667044 39.98906 60.00528
21.35000 227.0608 4.665484 40.01383 59.99414
21.38333 227.3949 4.663706 39.99736 60.00852
21.41666 227.7283 4.661461 39.99720 59.98622
21.45000 228.0596 4.659110 40.00074 60.01476
21.48334 228.3878 4.656497 39.99922 59.99258
21.51666 228.7205 4.654654 39.99441 59.99879
21.55000 229.0574 4.653556 40.00683 59.99597
21.58334 229.3873 4.651058 40.00261 60.00533
21.61667 229.7214 4.649130 39.98812 60.00182
21.65000 230.0539 4.647299 40.00875 59.99996
21.68333 230.3849 4.645020 39.99744 60.00176
21.71667 230.7190 4.643444 40.00918 59.98840
21.75000 231.0540 4.641929 40.00018 60.00601
21.78333 231.3868 4.639746 39.99780 59.99932
21.81667 231.7218 4.638028 39.99744 60.00580
21.85000 232.0524 4.635750 40.00368 59.99630
21.88333 232.3786 4.632989 39.99360 59.99508
21.91666 232.7132 4.631620 39.99444 60.01301
21.95000 233.0514 4.630687 40.00736 59.99387
21.98334 233.3820 4.628280 40.00226 59.99691
22.01666 233.7158 4.626545 39.99949 60.00330
22.05000 234.0494 4.624768 39.99020 59.99248
22.08334 234.3823 4.622756 40.01178 59.99708
22.11667 234.7134 4.620636 39.99623 60.00463
22.15000 235.0436 4.618700 39.99820 60.00820
22.18333 235.3770 4.617097 40.00353 59.99814
22.21667 235.7106 4.615520 40.00158 59.99171
22.25000 236.0476 4.614226 40.05958 59.99532
22.28333 236.3779 4.611948 39.99338 60.00621
22.31667 236.7136 4.610388 39.99844 60.00840
22.35000 237.0519 4.609240 40.01161 59.99594
22.38333 237.3838 4.607057 39.99609 60.00206
22.41666 237.7154 4.604952 40.00048 60.00482
22.45000 238.0490 4.603459 40.00236 59.98666
22.48334 238.3798 4.601387 39.99418 60.00273
22.51666 238.7107 4.599426 39.99832 60.00259
22.55000 239.0436 4.597810 40.00327 60.00572
22.58334 239.3749 4.595967 40.00736 59.99094
22.61667 239.7086 4.594315 39.99243 60.01089
22.65000 240.0430 4.592776 40.00104 59.99620
22.68333 240.3763 4.590933 40.00430 60.00471
22.71667 240.7068 4.589030 39.99329 59.99724
22.75000 241.0406 4.587307 40.00781 60.00580
22.78333 241.3749 4.585663 39.99791 59.99758
22.81667 241.7088 4.584046 40.00056 59.98950
22.85000 242.0431 4.582380 39.99964 60.00830
22.88333 242.3787 4.580718 39.99568 59.99072
22.91666 242.7098 4.578646 40.00194 59.99485
22.95000 243.0420 4.576756 39.99478 60.00394
22.98334 243.3736 4.574820 40.00506 60.01455
23.01666 243.7072 4.573053 39.99446 60.00037
23.05000 244.0404 4.571312 40.00306 59.98977
23.08334 244.3736 4.569297 40.00027 60.00305
23.11667 244.7068 4.567534 40.00586 59.99245
23.15000 245.0404 4.565638 39.99424 60.00606
23.18333 245.3725 4.563681 40.00430 59.99378
23.21667 245.7054 4.561656 40.00205 60.00450
23.25000 246.0397 4.559890 39.99058 60.00450
23.28333 246.3736 4.558010 40.00790 59.99346
23.31667 246.7057 4.555708 39.99930 60.00484
23.35000 247.0376 4.553424 39.99810 60.00117
23.38333 247.3684 4.551119 40.00240 59.99418
23.41666 247.7018 4.549062 39.99256 60.00652
23.45000 248.0350 4.546937 40.00723 60.00175
23.48334 248.3694 4.544911 40.00056 59.99216
23.51666 248.7026 4.542657 39.99347 60.00789
23.55000 249.0358 4.540166 40.00092 59.99104
23.58334 249.3684 4.537690 39.99856 59.99622
23.61667 249.7008 4.535188 40.00410 60.00708
23.65000 250.0342 4.532748 39.99345 60.00268
23.68333 250.3676 4.530229 40.00133 59.99194
23.71667 250.6989 4.527550 40.00606 60.00255
23.75000 251.0327 4.524996 39.99712 60.00450
23.78333 251.3671 4.522407 40.00454 60.00567
23.81667 251.7002 4.519680 39.99176 59.99835
23.85000 252.0348 4.516914 40.01394 59.99878
23.88333 252.3686 4.514028 39.99118 59.99160
23.91666 252.7010 4.510942 40.00589 60.01078
23.95000 253.0331 4.507817 39.99712 59.99071
23.98334 253.3662 4.504776 39.99456 60.00124
24.01666 253.7003 4.501663 40.00818 59.98726
24.05000 254.0334 4.498440 39.99348 60.00240
24.08334 254.3653 4.494941 39.99680 60.00901
24.11667 254.6974 4.491533 40.00280 59.99976
24.15000 255.0300 4.488014 40.00012 60.00037
24.18333 255.3625 4.484306 40.00022 59.99580
24.21667 255.6972 4.481008 39.99836 60.00030
24.25000 256.0317 4.477492 39.99717 60.00642
24.28333 256.3655 4.473706 40.00574 59.99419
24.31667 256.7002 4.469948 39.99676 60.01049
24.35000 257.0330 4.465916 40.00654 59.99800
24.38333 257.3650 4.461667 39.99969 59.99900
24.41666 257.6970 4.457512 40.00226 59.99096
24.45000 258.0302 4.453416 39.99600 60.00110
24.48334 258.3654 4.449250 39.99425 60.00894
24.51666 258.6990 4.444843 40.00471 60.00413
24.55000 259.0324 4.440348 40.00043 59.99683
24.58334 259.3658 4.435904 39.99867 59.99261
24.61667 259.6978 4.431020 39.99626 60.00322
24.65000 260.0308 4.426298 40.00440 59.99426
24.68333 260.3634 4.421498 40.00182 60.01104
24.71667 260.6946 4.416391 39.99832 59.98821
24.75000 261.0270 4.411414 39.99579 60.01140
24.78333 261.3599 4.406506 40.00274 59.99792
24.81667 261.6924 4.401300 39.99690 59.99624
24.85000 262.0250 4.395965 39.99844 59.99520
24.88333 262.3592 4.390560 40.00269 60.00198
24.91666 262.6942 4.385312 40.00119 60.00742
24.95000 263.0284 4.379837 39.99312 59.99612
24.98334 263.3633 4.374300 40.01412 60.00472
25.01666 263.6973 4.368608 39.99316 59.99578
25.05000 264.0292 4.362634 39.99609 60.00042
25.08334 264.3637 4.356858 40.00807 60.00305
25.11667 264.6971 4.350918 39.99148 59.99486
25.15000 265.0302 4.344850 40.00198 60.00586
25.18333 265.3630 4.338754 39.99837 59.99792
25.21667 265.6947 4.332283 40.00320 60.00195
25.25000 266.0266 4.325854 39.99732 59.99905
25.28333 266.3604 4.319718 40.00281 59.99870
25.31667 266.6941 4.313398 40.00854 60.00064
25.35000 267.0277 4.306888 39.99410 60.00227
25.38333 267.3620 4.300526 39.99782 59.99963
25.41666 267.6956 4.293962 40.00008 59.99426
25.45000 268.0283 4.287124 40.00816 59.99629
25.48334 268.3615 4.280266 39.99000 60.00747
25.51666 268.6947 4.273664 40.00825 59.98918
25.55000 269.0302 4.266994 39.99084 60.00368
25.58334 269.3626 4.260068 40.00574 59.99771
25.61666 269.6963 4.253115 39.99816 59.99843
25.65000 270.0321 4.246374 40.00752 60.01184
25.68333 270.3669 4.239550 39.99005 59.99088
25.71667 270.7008 4.232554 40.00732 60.00518
25.75000 271.0336 4.225254 39.99182 60.00951
25.78333 271.3637 4.217816 39.99672 59.99560
25.81667 271.6934 4.210333 40.00373 59.99928
25.85000 272.0225 4.203009 40.00430 60.00491
25.88334 272.3569 4.196189 39.99928 59.99298
25.91666 272.6957 4.189870 39.99388 59.99496
25.95000 273.0332 4.183037 40.01187 59.99864
25.98334 273.3732 4.176277 39.99705 60.00310
26.01666 273.7044 4.168396 39.99605 59.99530
26.05000 274.0364 4.160945 39.99634 60.01087
26.08334 274.3659 4.153141 40.00644 60.00656
26.11666 274.6958 4.145918 39.99481 59.99255
26.15000 275.0242 4.138359 40.00638 59.99121
26.18333 275.3556 4.131200 39.99802 60.00220
26.21667 275.6887 4.124326 40.00091 59.99714
26.25000 276.0234 4.117615 39.99620 60.00588
26.28333 276.3614 4.111203 40.00867 59.99992
26.31667 276.7042 4.105191 40.00140 59.99696
26.35000 277.0338 4.096872 39.99746 60.01201
26.38334 277.3721 4.090272 39.99128 59.98437
26.41666 277.7057 4.083540 40.00952 59.99773
26.45000 278.0420 4.076816 39.98901 60.01011
26.48334 278.3824 4.070818 40.00175 59.99325
26.51666 278.7155 4.063751 40.00528 60.00603
26.55000 279.0463 4.056633 39.99722 60.01590
26.58334 279.3758 4.049716 40.00034 59.98806
26.61666 279.7056 4.042802 40.00261 59.99658
26.65000 280.0373 4.036464 39.99965 59.99566
26.68333 280.3700 4.030378 39.99551 60.00770
26.71667 280.7011 4.024052 39.99377 59.99043
26.75000 281.0358 4.018047 40.00806 60.01028
26.78333 281.3762 4.013081 40.00402 59.98424
26.81667 281.7124 4.007141 39.99340 60.01162
26.85000 282.0441 4.000730 39.99992 59.99720
26.88334 282.3764 3.994847 40.00472 60.00914
26.91666 282.7060 3.988868 39.99574 59.98484
26.95000 283.0396 3.983566 39.99757 60.00512
26.98334 283.3696 3.978086 40.01580 60.00309
27.01666 283.7039 3.973314 39.98535 60.00340
27.05000 284.0416 3.968793 40.00350 59.99508
27.08334 284.3784 3.964288 40.00075 60.00242
27.11666 284.7122 3.959366 39.99712 59.99343
27.15000 285.0441 3.954463 40.00148 60.01124
27.18333 285.3786 3.950244 40.00733 59.99870
27.21667 285.7146 3.946312 39.99904 60.00249
27.25000 286.0490 3.942212 39.99644 59.99376
27.28333 286.3852 3.938463 40.00041 59.99778
27.31667 286.7180 3.934254 39.99987 60.00266
27.35000 287.0474 3.929880 39.99058 59.99441
27.38334 287.3787 3.926158 40.01176 59.99613
27.41666 287.7168 3.923224 39.99304 60.01174
27.45000 288.0522 3.919856 40.00032 59.99870
27.48334 288.3912 3.916970 40.00716 59.98622
27.51666 288.7222 3.912995 40.00556 60.00752
27.55000 289.0541 3.909315 39.99689 60.00121
27.58334 289.3832 3.905563 39.99872 59.99400
27.61666 289.7145 3.902103 39.99521 60.00489
27.65000 290.0460 3.898980 39.99075 60.00744
27.68333 290.3774 3.895744 40.01292 59.99734
27.71667 290.7091 3.892410 40.00502 60.00226
27.75000 291.0431 3.889431 39.98117 60.00532
27.78333 291.3789 3.886544 40.00616 59.98650
27.81667 291.7175 3.884166 39.99391 60.01171
27.85000 292.0532 3.880887 40.01494 59.99120
27.88334 292.3777 3.876602 39.98080 60.00257
27.91666 292.7062 3.873407 40.02213 59.99432
27.95000 293.0413 3.870649 39.98818 60.00985
27.98334 293.3720 3.867509 39.99122 60.00088
28.01666 293.7020 3.863991 40.00639 59.99205
28.05000 294.0325 3.860881 40.01623 59.99788
28.08334 294.3652 3.857950 39.98490 60.00000
28.11666 294.6986 3.854954 39.99155 60.01120
28.15000 295.0330 3.851888 40.00283 59.99527
28.18333 295.3661 3.848694 39.99948 60.00294
28.21667 295.6987 3.845413 40.01708 59.99074
28.25000 296.0344 3.842357 39.99479 59.99761
28.28333 296.3632 3.838700 40.00290 60.00578
28.31667 296.6920 3.834944 39.99133 60.00127
28.35000 297.0250 3.831868 39.99784 59.98999
28.38334 297.3561 3.828314 39.99725 60.00992
28.41666 297.6888 3.825163 40.01538 59.99150
28.45000 298.0222 3.821850 39.99617 60.00398
28.48334 298.3572 3.818481 39.99685 60.00896
28.51666 298.6905 3.814883 39.99466 60.00640
28.55000 299.0239 3.811345 39.99680 60.00806
28.58334 299.3594 3.807935 40.01194 59.97207
28.61666 299.6925 3.804260 39.98380 60.01731
28.65000 300.0237 3.800174 40.02240 59.99612
28.68333 300.3574 3.796516 39.99350 60.00523
28.71667 300.6892 3.792728 40.00308 59.98056
28.75000 301.0228 3.788942 39.99036 60.01076
28.78333 301.3550 3.785028 39.99104 60.00218
28.81667 301.6892 3.781060 40.00536 59.99426
28.85000 302.0200 3.776936 40.01186 59.99708
28.88334 302.3509 3.772844 39.98914 60.00974
28.91666 302.6820 3.768563 40.01284 59.99441
28.95000 303.0139 3.764090 39.99219 60.00027
28.98334 303.3486 3.760286 39.99446 60.00768
29.01666 303.6823 3.756040 40.00381 59.99934
29.05000 304.0162 3.751568 40.01230 59.98642
29.08334 304.3486 3.747080 39.98619 60.00880
29.11666 304.6838 3.742774 40.01108 59.99613
29.15000 305.0127 3.737555 39.99318 59.99380
29.18333 305.3490 3.733361 40.00089 60.00761
29.21667 305.6842 3.729025 39.99186 59.99718
29.25000 306.0228 3.724753 40.01051 60.00039
29.28333 306.3614 3.720456 40.00588 59.99180
29.31667 306.6930 3.714889 39.98835 60.01493
29.35000 307.0228 3.709369 40.00706 59.99014
29.38334 307.3520 3.703942 40.00360 60.01152
29.41666 307.6829 3.698859 39.99414 59.99089
29.45000 308.0131 3.693486 39.98880 60.01089
29.48334 308.3486 3.688798 40.01383 59.98770
29.51666 308.6800 3.682964 40.00075 59.99854
29.55000 309.0150 3.677875 39.98863 60.00676
29.58334 309.3490 3.672383 40.00050 60.00434
29.61666 309.6865 3.667080 39.99971 60.00593
29.65000 310.0225 3.661523 40.00950 59.98137
29.68333 310.3554 3.655376 40.00199 60.00893
29.71667 310.6919 3.649953 39.99908 60.00756
29.75000 311.0207 3.643307 39.99218 59.99010
29.78333 311.3529 3.637258 40.00947 59.99938
29.81667 311.6838 3.630884 40.00244 59.99984
29.85000 312.0190 3.625000 39.98908 60.00082
29.88334 312.3525 3.618606 39.99518 60.00040
29.91666 312.6815 3.611750 39.99465 60.00759
29.95000 313.0110 3.604798 39.99929 60.00207
29.98334 313.3435 3.598206 40.01110 59.98838
30.01666 313.6812 3.592248 39.99985 60.00791
30.05000 314.0150 3.585110 39.99451 59.99558
30.08334 314.3463 3.577775 40.00342 60.00098
30.11666 314.6824 3.571040 40.00286 60.00213
30.15000 315.0148 3.563605 40.01107 59.98668
30.18333 315.3518 3.556574 39.98100 60.01936
30.21667 315.6882 3.549460 39.99620 59.98830
30.25000 316.0205 3.541557 40.01036 59.99912
30.28333 316.3558 3.534108 40.00318 60.00142
30.31667 316.6932 3.526594 40.00576 60.00528
30.35000 317.0252 3.518445 39.99101 59.99312
30.38334 317.3560 3.510004 39.99983 60.00634
30.41666 317.6867 3.501484 39.99450 60.00392
30.45000 318.0196 3.493298 40.01832 59.98919
30.48334 318.3560 3.485332 39.99282 59.99776
30.51666 318.6902 3.476729 40.00134 60.00072
30.55000 319.0232 3.467926 39.99500 60.01019
30.58334 319.3596 3.459369 39.99634 60.00535
30.61666 319.6898 3.449817 40.00874 59.98198
30.65000 320.0225 3.440455 39.99300 60.00623
30.68333 320.3560 3.431114 39.99804 59.99818
30.71667 320.6862 3.421396 40.00406 60.01380
30.75000 321.0170 3.411464 40.00429 59.98955
30.78333 321.3497 3.401774 39.99691 59.99894
30.81667 321.6847 3.392065 39.99883 60.00508
30.85000 322.0182 3.381807 39.99657 59.99946
30.88334 322.3530 3.371510 39.99970 59.99534
30.91666 322.6869 3.361030 40.00905 59.99302
30.95000 323.0230 3.350252 40.00319 60.00126
30.98334 323.3579 3.339453 39.98545 60.00777
31.01666 323.6903 3.328008 40.00172 59.99882
31.05000 324.0218 3.316262 39.99783 60.01010
31.08334 324.3541 3.304780 40.00081 59.98826
31.11666 324.6872 3.292888 40.01194 59.99716
31.15000 325.0234 3.281303 39.99944 60.00926
31.18333 325.3628 3.269735 39.99938 59.99770
31.21667 325.6990 3.257172 40.00015 60.00532
31.25000 326.0376 3.244827 39.99687 59.98389
31.28333 326.3700 3.231348 39.99988 60.00621
31.31667 326.6988 3.217444 39.99478 60.01005
31.35000 327.0305 3.203994 39.99384 59.99750
31.38334 327.3616 3.190096 40.01433 59.99512
31.41666 327.6884 3.175415 39.99094 59.99594
31.45000 328.0200 3.161138 40.01244 59.99730
31.48334 328.3532 3.146706 39.98534 60.00815
31.51666 328.6869 3.131852 40.00812 60.00652
31.55000 329.0200 3.116489 40.00708 59.98972
31.58334 329.3500 3.100513 39.99082 60.00244
31.61666 329.6850 3.084760 40.00100 59.99419
31.65000 330.0216 3.068884 39.99367 60.00508
31.68333 330.3580 3.052464 40.00894 60.00156
31.71667 330.6938 3.035668 39.99552 59.99332
31.75000 331.0267 3.018166 40.00476 60.01275
31.78333 331.3617 3.000672 40.00384 59.98324
31.81667 331.6963 2.982852 39.99813 60.00735
31.85000 332.0300 2.964563 39.99318 60.01023
31.88334 332.3628 2.945914 40.00088 59.98766
31.91666 332.6939 2.926770 40.00144 60.00657
31.95000 333.0225 2.907132 39.99864 60.00132
31.98334 333.3551 2.887628 40.00139 59.99684
32.01666 333.6917 2.868450 39.99678 59.99707
32.05000 334.0265 2.848550 39.99738 59.99824
32.08333 334.3612 2.828330 40.00317 60.00156
32.11666 334.6958 2.807860 40.00588 60.00957
32.15000 335.0254 2.786790 39.99147 59.99559
32.18334 335.3529 2.765224 40.01080 59.99011
32.21667 335.6822 2.744120 39.99135 60.01578
32.25000 336.0187 2.723830 39.99785 59.99312
32.28333 336.3528 2.703175 40.01382 59.99963
32.31666 336.6819 2.681687 39.98355 60.00274
32.35000 337.0110 2.660308 40.00175 60.00440
32.38334 337.3455 2.640342 40.00735 59.98223
32.41667 337.6859 2.620973 39.99378 60.01900
32.45000 338.0227 2.601199 40.00537 59.98545
32.48334 338.3600 2.581860 39.99460 60.01718
32.51666 338.6914 2.561978 40.00262 59.99162
32.55000 339.0269 2.543770 39.99344 59.99820
32.58333 339.3578 2.525258 40.00852 59.99735
32.61666 339.6903 2.507762 40.00693 59.99682
32.65000 340.0132 2.489782 39.99472 60.00045
32.68334 340.3430 2.473583 39.99697 60.00928
32.71667 340.6733 2.458185 39.99747 59.99874
32.75000 341.0066 2.443666 40.01124 59.98578
32.78333 341.3350 2.429006 40.00083 60.00375
32.81666 341.6649 2.415218 39.99217 59.99932
32.85000 341.9945 2.402100 40.00280 60.00035
32.88334 342.3282 2.390267 39.99418 60.00205
32.91667 342.6632 2.378828 40.01141 59.99571
32.95000 342.9978 2.367928 39.99691 60.01098
32.98334 343.3280 2.356828 39.99663 59.99319
33.01666 343.6623 2.346987 40.00330 60.01112
33.05000 343.9998 2.337990 39.99167 59.98808
33.08333 344.3306 2.328596 40.01025 60.00768
33.11666 344.6578 2.319322 39.99544 59.99129
33.15000 344.9877 2.310913 40.00126 60.01181
33.18334 345.3162 2.303142 39.99922 59.99500
33.21667 345.6450 2.295329 39.99550 60.00567
33.25000 345.9758 2.288350 40.00212 59.98860
33.28333 346.3069 2.281712 40.00180 60.00105
33.31666 346.6333 2.274695 40.00722 59.99707
33.35000 346.9633 2.268550 39.99460 60.00926
33.38334 347.2965 2.262792 39.99286 60.00201
33.41667 347.6298 2.257314 40.00218 59.99028
33.45000 347.9663 2.252192 40.00178 60.00012
33.48334 348.2976 2.246652 39.99461 60.00949
33.51666 348.6319 2.241730 40.00448 59.99706
33.55000 348.9695 2.237348 39.99432 59.99995
33.58333 349.3035 2.232799 40.00602 59.99440
33.61666 349.6375 2.228131 40.00689 59.99524
33.65000 349.9694 2.223532 40.00020 60.00418
33.68334 350.3020 2.219157 39.98025 60.01314
33.71667 350.6364 2.215283 40.00235 59.99648
33.75000 350.9705 2.211452 40.00460 60.00200
33.78333 351.3032 2.207444 40.00292 60.00031
33.81666 351.6389 2.203982 39.99556 59.99516
33.85000 351.9746 2.200615 40.00632 60.00348
33.88334 352.3079 2.196819 40.00150 60.00422
33.91667 352.6415 2.193389 40.00756 59.98250
33.95000 352.9766 2.190213 39.99036 60.00867
33.98334 353.3103 2.186918 40.00420 59.99088
34.01666 353.6411 2.183356 40.00086 60.01150
34.05000 353.9762 2.180442 39.99237 59.99076
34.08333 354.3081 2.177205 40.00647 60.00202
34.11666 354.6424 2.174272 40.00125 60.00316
34.15000 354.9776 2.171556 40.00030 59.99768
34.18334 355.3140 2.168714 39.98522 60.00710
34.21667 355.6461 2.165434 40.01160 59.99140
34.25000 355.9800 2.162660 40.00500 60.00070
34.28333 356.3116 2.159666 39.98755 60.00857
34.31666 356.6446 2.156882 40.00692 59.99444
34.35000 356.9816 2.154570 40.00058 60.00328
34.38334 357.3181 2.152138 40.00384 59.98984
34.41667 357.6534 2.149656 40.00274 60.00292
34.45000 357.9888 2.147013 39.99240 59.99695
34.48334 358.3232 2.144376 40.00426 60.00586
34.51666 358.6569 2.141596 40.00033 59.99691
34.55000 358.9907 2.139217 39.99576 59.99604
34.58333 359.3248 2.136790 39.99280 60.01756
34.61666 359.6586 2.134383 40.00630 59.98799
34.65000 359.9926 2.132196 39.99456 60.00926
34.68334 360.3283 2.129916 40.01263 59.99031
34.71667 360.6640 2.127760 39.99468 59.99543
34.75000 360.9954 2.125149 40.00114 60.00615
34.78333 361.3261 2.122402 40.00161 60.00538
34.81666 361.6586 2.120038 40.00060 59.99426
34.85000 361.9913 2.117792 40.00018 59.99740
34.88334 362.3258 2.115698 39.99858 60.00266
34.91667 362.6660 2.114196 39.99286 60.00070
34.95000 363.0010 2.111908 40.00549 59.99885
34.98334 363.3375 2.109841 40.00024 60.00208
35.01666 363.6750 2.108044 40.00168 59.99928
35.05000 364.0059 2.105261 39.99372 60.00465
35.08333 364.3347 2.102642 40.00792 59.99536
35.11666 364.6719 2.101169 39.98876 60.01244
35.15000 365.0150 2.100410 39.99820 59.99770
35.18334 365.3470 2.097790 40.01463 59.99317
35.21667 365.6775 2.095175 39.99062 60.00289
35.25000 366.0048 2.092712 39.99730 59.99714
35.28333 366.3345 2.090475 40.00034 60.00080
35.31666 366.6679 2.088767 40.00328 59.99524
35.35000 367.0088 2.087944 39.99666 60.00497
35.38334 367.3460 2.086087 40.00050 59.99982
35.41667 367.6775 2.083688 40.00538 59.99965
35.45000 368.0112 2.081731 39.99695 60.00076
35.48334 368.3460 2.079948 40.00097 59.99314
35.51666 368.6778 2.077934 39.99918 60.00445
35.55000 369.0104 2.076062 40.00455 60.00554
35.58333 369.3436 2.074028 39.98692 59.98853
35.61666 369.6809 2.072886 40.00515 60.01039
35.65000 370.0135 2.070842 40.00718 59.99350
35.68334 370.3417 2.068239 40.00531 59.99834
35.71667 370.6756 2.066711 39.99274 60.00915
35.75000 371.0127 2.065496 40.01046 59.98699
35.78333 371.3455 2.063584 39.98856 60.00764
35.81666 371.6769 2.061444 40.00348 60.00166
35.85000 372.0152 2.060366 39.99000 59.99858
35.88334 372.3509 2.058783 40.00170 59.99958
35.91667 372.6828 2.056589 40.00450 60.00168
35.95000 373.0134 2.054568 39.99270 59.99765
35.98334 373.3438 2.052647 40.00425 60.00258
36.01666 373.6729 2.050478 40.01262 59.99589
36.05000 374.0079 2.049307 39.99060 59.99316
36.08333 374.3397 2.047393 40.00590 60.00686
36.11666 374.6822 2.046750 39.99916 60.00455
36.15000 375.0254 2.046217 39.99494 59.99474
36.18334 375.3527 2.043078 39.99674 60.00872
36.21667 375.6834 2.040842 40.00086 59.99324
36.25000 376.0181 2.039852 40.00072 60.00160
36.28333 376.3429 2.037064 40.00128 60.01008
36.31666 376.6740 2.035425 39.99470 59.98704
36.35000 377.0144 2.034940 40.00995 60.00063
36.38334 377.3560 2.034125 39.98997 60.00793
36.41667 377.6920 2.032440 40.01537 59.99016
36.45000 378.0241 2.030384 39.99391 60.00097
36.48334 378.3579 2.028748 39.99270 60.00375
36.51666 378.6914 2.027148 40.00282 59.99894
36.55000 379.0280 2.026090 39.99706 59.99709
36.58333 379.3618 2.024650 39.99731 60.00346
36.61666 379.6931 2.022711 40.01245 59.99756
36.65000 380.0224 2.020692 39.99416 59.99666
36.68334 380.3541 2.019346 40.00700 60.00388
36.71667 380.6851 2.017742 39.99275 59.99332
36.75000 381.0149 2.015889 39.99345 60.01720
36.78333 381.3492 2.014649 40.00974 59.99613
36.81666 381.6859 2.013592 39.99196 59.99482
36.85000 382.0204 2.012201 39.99588 60.00132
36.88334 382.3559 2.010898 40.01009 59.99760
36.91667 382.6900 2.009622 40.00674 59.99510
36.95000 383.0231 2.007869 39.98762 60.00976
36.98334 383.3554 2.005982 39.99990 59.99755
37.01666 383.6892 2.004581 39.99609 60.00022
37.05000 384.0252 2.003399 40.00967 60.00312
37.08333 384.3615 2.002234 39.99520 60.00132
37.11666 384.6918 2.000491 39.99717 59.99250
37.15000 385.0210 1.998482 40.01274 59.99582
37.18334 385.3564 1.997573 39.99678 60.01059
37.21667 385.6876 1.995929 39.99236 60.00350
37.25000 386.0239 1.994884 40.00262 59.99343
37.28333 386.3654 1.994658 40.00481 59.99646
37.31666 386.7020 1.993112 39.99544 60.00056
37.35000 387.0325 1.991313 39.99825 60.00024
37.38334 387.3617 1.989330 39.99770 60.00494
37.41667 387.6885 1.987401 39.99556 59.99376
37.45000 388.0158 1.985598 40.01900 60.00176
37.48334 388.3460 1.984291 39.99590 59.99672
37.51666 388.6892 1.984431 39.99061 60.00899
37.55000 389.0274 1.983247 40.00404 60.00121
37.58333 389.3691 1.982583 39.99617 59.99413
37.61666 389.7036 1.980846 40.00070 59.99924
37.65000 390.0380 1.979433 39.99555 60.00303
37.68334 390.3682 1.977609 40.01383 59.99366
37.71667 390.6954 1.975691 39.99290 59.99868
37.75000 391.0218 1.973914 39.99695 60.00715
37.78333 391.3464 1.972048 40.00536 60.00296
37.81666 391.6700 1.969857 39.99594 59.99011
37.85000 392.0008 1.968433 40.00131 60.00874
37.88334 392.3506 1.969544 40.00618 60.01235
37.91667 392.6955 1.969246 40.00250 59.98062
37.95000 393.0267 1.966569 39.99254 60.00164
37.98334 393.3524 1.964088 40.00648 59.99851
38.01666 393.6856 1.962862 39.99844 59.99760
38.05000 394.0172 1.961620 39.99748 60.00471
38.08333 394.3520 1.960541 40.00836 60.00006
38.11666 394.6884 1.959781 39.99098 60.00385
38.15000 395.0167 1.957549 40.00650 59.99082
38.18334 395.3497 1.956199 39.99034 60.01078
38.21667 395.6926 1.956226 40.00391 59.98987
38.25000 396.0274 1.954938 40.00368 60.00550
38.28333 396.3550 1.952431 39.99766 59.99805
38.31666 396.6960 1.952389 40.00205 59.99918
38.35000 397.0314 1.951209 40.00096 59.99780
38.38334 397.3602 1.949142 39.99280 60.01308
38.41667 397.6922 1.947995 39.99984 59.99187
38.45000 398.0277 1.947089 39.99872 60.00769
38.48334 398.3610 1.945639 40.01394 59.98738
38.51666 398.6926 1.944119 39.99392 60.00124
38.55000 399.0332 1.943916 39.99375 60.01082
38.58333 399.3611 1.941727 39.99625 59.99472
38.61666 399.6907 1.940144 39.99846 60.00367
38.65000 400.0244 1.939164 40.01264 59.98926
38.68334 400.3607 1.938134 39.99078 59.99766
38.71667 400.6913 1.936632 40.00136 60.00558
38.75000 401.0175 1.934186 39.99911 59.99866
38.78333 401.3510 1.933398 40.00583 59.99674
38.81666 401.6831 1.932303 39.99460 60.00493
38.85000 402.0188 1.931287 40.00223 59.99746
38.88334 402.3601 1.930931 40.00679 59.99102
38.91667 402.6969 1.929766 39.99938 60.00959
38.95000 403.0285 1.927899 39.99329 59.99840
38.98334 403.3572 1.925918 40.00267 60.00193
39.01666 403.6863 1.924498 39.99172 59.99994
39.05000 404.0178 1.923152 39.99702 59.99829
39.08333 404.3554 1.922736 40.00408 59.99901
39.11666 404.6910 1.921527 40.00634 60.00800
39.15000 405.0222 1.919892 40.00778 59.99541
39.18334 405.3586 1.919033 39.99579 59.99735
39.21667 405.6928 1.917654 39.99287 59.99580
39.25000 406.0274 1.916564 39.99934 60.00681
39.28333 406.3633 1.915552 40.00147 59.99822
39.31666 406.6937 1.913703 40.00148 60.00806
39.35000 407.0218 1.911825 40.00710 59.99200
39.38334 407.3554 1.911023 39.98832 60.00166
39.41667 407.6910 1.910029 40.00525 60.00054
39.45000 408.0215 1.908472 40.00120 60.00044
39.48334 408.3540 1.907184 39.98853 59.99756
39.51666 408.6926 1.906750 40.00678 60.00525
39.55000 409.0302 1.905666 39.99683 60.00128
39.58333 409.3654 1.904543 40.00507 60.00476
39.61666 409.7027 1.903616 39.99494 59.98826
39.65000 410.0316 1.901923 39.99977 60.00957
39.68334 410.3594 1.899723 40.00514 59.99702
39.71667 410.6880 1.898220 40.00788 59.98668
39.75000 411.0229 1.897520 39.99050 60.01756
39.78333 411.3590 1.896780 40.00402 59.99211
39.81666 411.6963 1.895760 40.00400 59.99492
39.85000 412.0332 1.894677 39.99506 60.01224
39.88334 412.3644 1.892988 39.99925 59.98682
39.91667 412.6942 1.891417 39.99924 60.00118
39.95000 413.0245 1.889880 40.00609 60.00232
39.98334 413.3550 1.888496 39.99406 60.00874
40.01666 413.6874 1.887274 40.00478 59.99659
40.05000 414.0254 1.886739 39.99845 60.00350
40.08333 414.3664 1.886258 40.00404 59.98835
40.11666 414.7036 1.885171 40.00076 59.99816
40.15000 415.0357 1.883309 39.99572 60.00251
40.18334 415.3672 1.881715 39.99036 60.01054
40.21667 415.7000 1.880637 39.99634 59.99805
40.25000 416.0316 1.879317 40.00928 60.00430
40.28333 416.3656 1.878305 40.00416 59.98548
40.31666 416.7002 1.877336 39.99669 60.01745
40.35000 417.0363 1.876398 39.99187 59.99139
40.38334 417.3699 1.875070 40.00683 59.99621
40.41667 417.7028 1.873827 40.00672 59.99492
40.45000 418.0356 1.872477 40.00180 59.99855
40.48334 418.3687 1.871258 40.00378 60.01093
40.51666 418.7016 1.870231 39.99237 60.00288
40.55000 419.0348 1.868996 40.00112 60.00403
40.58333 419.3663 1.867554 39.98830 59.99968
40.61666 419.6996 1.866364 40.00131 59.99765
40.65000 420.0320 1.865274 39.99964 59.99830
40.68334 420.3666 1.864189 40.00510 60.00139
40.71667 420.7000 1.863057 40.00197 59.99896
40.75000 421.0311 1.861522 40.00087 59.99124
40.78333 421.3616 1.860078 40.00067 60.00724
40.81666 421.6944 1.858915 39.99588 60.00176
40.85000 422.0270 1.857744 39.99537 59.99271
40.88334 422.3624 1.856651 40.01400 59.99836
40.91667 422.6954 1.855526 39.99550 60.00028
40.95000 423.0290 1.854586 39.99588 60.00442
40.98334 423.3604 1.853466 40.00428 60.00425
41.01666 423.6930 1.852232 40.00210 59.99975
41.05000 424.0250 1.850976 39.98994 59.99395
41.08333 424.3562 1.849523 40.01858 59.99745
41.11666 424.6900 1.848224 39.98848 60.00432
41.15000 425.0270 1.847300 40.00042 59.99288
41.18334 425.3675 1.846867 39.99231 60.01130
41.21667 425.7056 1.845752 39.99695 59.99395
41.25000 426.0380 1.844017 40.00546 60.00781
41.28333 426.3681 1.842381 39.99869 60.00480
41.31666 426.7008 1.841185 40.00269 59.99379
41.35000 427.0364 1.840453 40.00838 59.98889
41.38334 427.3686 1.839198 39.99228 60.00937
41.41667 427.7018 1.837801 40.00018 59.99990
41.45000 428.0373 1.836994 40.00566 59.99800
41.48334 428.3687 1.835556 39.99798 59.99507
41.51666 428.6975 1.833942 40.00330 59.99605
41.55000 429.0322 1.833088 39.98383 60.00491
41.58333 429.3742 1.833004 40.01384 59.99924
41.61666 429.7146 1.832295 39.99033 60.00361
41.65000 430.0463 1.830567 40.00594 59.99434
41.68334 430.3780 1.829106 39.99772 60.01135
41.71667 430.7063 1.827425 39.99664 59.99495
41.75000 431.0346 1.825906 40.00297 59.99892
41.78333 431.3676 1.825010 39.99513 60.00390
41.81666 431.7050 1.824559 40.00238 60.00184
41.85000 432.0392 1.823277 40.00882 59.99837
41.88334 432.3703 1.821755 39.99780 60.01176
41.91667 432.7068 1.821053 39.99622 59.98648
41.95000 433.0410 1.819852 40.00290 59.99440
41.98334 433.3752 1.818806 40.00658 59.99986
42.01666 433.7097 1.817770 39.99735 60.01052
42.05000 434.0450 1.816854 39.99148 59.99020
42.08333 434.3777 1.815554 40.00325 60.00146
42.11666 434.7078 1.814100 39.99716 60.00063
42.15000 435.0394 1.812892 39.99844 60.00196
42.18334 435.3716 1.811806 40.00726 59.99905
42.21667 435.7045 1.810684 39.99615 59.99332
42.25000 436.0375 1.809462 40.00685 60.00026
42.28333 436.3725 1.808301 39.99852 60.00562
42.31666 436.7071 1.807442 39.99689 60.00574
42.35000 437.0387 1.805992 39.98885 59.99743
42.38334 437.3704 1.804544 40.01355 59.99421
42.41667 437.7033 1.803504 39.99312 60.00165
42.45000 438.0378 1.802508 40.00041 60.00048
42.48334 438.3782 1.802227 40.00316 59.99950
42.51666 438.7142 1.801058 40.00064 60.01279
42.55000 439.0488 1.800024 39.99218 60.00147
42.58333 439.3787 1.798332 40.00190 59.98309
42.61666 439.7117 1.797356 40.01217 59.99401
42.65000 440.0487 1.796751 40.00105 60.01270
42.68334 440.3803 1.795384 39.99070 60.00336
42.71667 440.7094 1.793784 40.00473 59.99380
42.75000 441.0386 1.792269 39.99635 59.99957
42.78333 441.3697 1.791294 39.99835 60.00026
42.81666 441.7022 1.790171 39.99894 60.00422
42.85000 442.0398 1.789699 40.00490 59.98567
42.88334 442.3733 1.788600 39.99530 60.00934
42.91667 442.7090 1.787458 40.01116 60.00412
42.95000 443.0430 1.786451 39.99153 59.99818
42.98334 443.3753 1.785049 40.00097 59.99128
43.01666 443.7078 1.783958 39.99480 60.00608
43.05000 444.0410 1.782831 40.01160 60.00071
43.08333 444.3694 1.781215 39.99153 59.99592
43.11666 444.7074 1.780934 39.99519 60.01524
43.15000 445.0396 1.779652 40.00608 59.98664
43.18334 445.3732 1.778496 40.00480 59.99370
43.21667 445.7072 1.777531 39.98854 60.00251
43.25000 446.0452 1.777040 39.99933 60.01774
43.28333 446.3847 1.776612 40.00588 59.98526
43.31666 446.7184 1.775458 40.00013 60.00772
43.35000 447.0514 1.774127 40.00482 59.99321
43.38334 447.3820 1.772906 39.99404 60.00860
43.41667 447.7108 1.771465 40.00785 59.99244
43.45000 448.0394 1.770122 40.00026 59.99600
43.48334 448.3704 1.769076 39.99795 59.99995
43.51666 448.7066 1.768542 39.98778 60.01000
43.55000 449.0416 1.767525 40.00250 59.99130
43.58333 449.3740 1.766061 40.00416 60.00222
43.61666 449.7078 1.764906 39.99520 60.01068
43.65000 450.0414 1.764044 40.01076 59.99722
43.68334 450.3758 1.763163 39.99538 60.00351
43.71667 450.7109 1.762117 40.00098 59.99761
43.75000 451.0411 1.760719 39.99792 59.99979
43.78333 451.3766 1.759862 39.99875 59.99966
43.81666 451.7109 1.759160 40.00328 59.99561
43.85000 452.0445 1.758118 40.00874 59.99190
43.88334 452.3796 1.757006 39.98580 60.00595
43.91667 452.7130 1.756056 39.99872 60.00298
43.95000 453.0473 1.755257 40.00575 59.99885
43.98334 453.3817 1.754410 39.99818 59.99939
44.01666 453.7153 1.753436 39.99611 60.00257
44.05000 454.0521 1.752733 40.00066 59.99649
44.08333 454.3838 1.751443 40.00113 59.99854
44.11666 454.7146 1.750294 40.01413 59.99853
44.15000 455.0484 1.749354 39.98789 60.01032
44.18334 455.3786 1.747911 40.00685 59.98496
44.21667 455.7084 1.746734 39.99498 60.00964
44.25000 456.0422 1.745962 40.00458 59.99255
44.28333 456.3756 1.745061 40.00058 60.00480
44.31666 456.7062 1.743895 40.00112 59.99771
44.35000 457.0406 1.742979 39.99200 60.01050
44.38334 457.3778 1.742337 40.00634 59.98818
44.41667 457.7167 1.741832 39.99250 60.00292
44.45000 458.0548 1.741204 40.00137 60.00899
44.48334 458.3886 1.740096 40.00436 59.98812
44.51666 458.7188 1.738727 39.99993 60.00476
44.55000 459.0502 1.737556 39.99996 59.99858
44.58333 459.3820 1.736757 39.99973 59.99980
44.61666 459.7140 1.735731 40.00128 59.99911
44.65000 460.0478 1.735148 39.98599 60.00778
44.68334 460.3808 1.734068 40.01031 59.98794
44.71667 460.7114 1.732876 39.99990 60.00928
44.75000 461.0455 1.731946 40.00024 60.00180
44.78333 461.3789 1.731086 40.00410 59.99344
44.81666 461.7130 1.730182 39.99150 59.99828
44.85000 462.0483 1.729484 40.00746 60.00183
44.88334 462.3832 1.728730 39.99508 60.00018
44.91667 462.7188 1.727920 40.00556 59.99706
44.95000 463.0522 1.726936 39.99664 60.00928
44.98334 463.3866 1.726035 40.00296 59.99133
45.01666 463.7189 1.725036 39.99538 60.00270
45.05000 464.0514 1.724128 40.00604 60.00832
45.08333 464.3850 1.723319 39.99812 59.98664
45.11666 464.7192 1.722538 40.00030 60.00713
45.15000 465.0536 1.721906 40.00260 59.99771
45.18334 465.3884 1.721146 39.99566 59.99644
45.21667 465.7217 1.720124 39.99620 60.00432
45.25000 466.0533 1.719091 40.00539 59.99870
45.28333 466.3841 1.718219 40.00105 60.00300
45.31666 466.7156 1.717070 39.99086 60.00181
45.35000 467.0490 1.716386 40.01005 60.00082
45.38334 467.3836 1.715773 39.99228 59.99812
45.41667 467.7184 1.715039 40.00857 60.00066
45.45000 468.0538 1.714353 39.99534 59.99370
45.48334 468.3872 1.713621 39.99302 60.00470
45.51666 468.7228 1.712878 40.00890 59.99537
45.55000 469.0612 1.712628 40.00144 60.00720
45.58333 469.3984 1.712236 39.99869 59.98752
45.61666 469.7270 1.710681 39.99374 60.01472
45.65000 470.0552 1.709215 39.99454 59.99444
45.68334 470.3846 1.708566 40.00801 59.99443
45.71667 470.7154 1.707799 40.00519 60.01410
45.75000 471.0453 1.706858 39.99750 59.98738
45.78333 471.3772 1.705888 39.99515 60.00316
45.81666 471.7136 1.705624 40.01035 59.99848
45.85000 472.0578 1.706159 39.99209 59.99370
45.88334 472.4000 1.706207 40.00949 60.01236
45.91667 472.7310 1.704482 39.99507 59.99258
45.95000 473.0619 1.703369 39.99256 60.00850
45.98334 473.3900 1.702237 40.00701 59.99763
46.01666 473.7209 1.701354 40.00024 59.99368
46.05000 474.0545 1.700894 39.99188 60.01184
46.08333 474.3900 1.700548 40.00964 59.99781
46.11666 474.7246 1.700169 39.98934 59.98928
46.15000 475.0632 1.699905 40.00867 60.00343
46.18334 475.3978 1.699302 39.99447 59.99928
46.21667 475.7322 1.698456 40.00384 59.99882
46.25000 476.0624 1.697469 39.99887 60.00516
46.28333 476.3910 1.696200 40.01065 59.99879
46.31666 476.7204 1.695429 39.98990 60.00108
46.35000 477.0470 1.694027 39.99854 60.00006
46.38334 477.3830 1.693969 40.00520 59.99280
46.41667 477.7200 1.693781 39.99907 59.99797
46.45000 478.0585 1.693470 39.99714 60.01343
46.48334 478.3918 1.692465 39.99390 59.99949
46.51666 478.7290 1.692137 40.00691 59.99141
46.55000 479.0648 1.691696 40.00073 60.00589
46.58333 479.3982 1.691110 40.00341 60.00157
46.61666 479.7299 1.690120 39.99912 59.98596
46.65000 480.0620 1.689528 39.99454 60.01192
46.68334 480.3950 1.688882 40.00226 60.00082
46.71667 480.7238 1.687855 39.99674 59.99913
46.75000 481.0536 1.686901 40.00207 59.99474
46.78333 481.3906 1.686964 39.99904 60.00388
46.81666 481.7253 1.686401 40.00320 59.99872
46.85000 482.0630 1.686278 39.99145 59.99284
46.88334 482.4041 1.686450 40.00627 60.00028
46.91667 482.7433 1.686349 40.00446 59.99882
46.95000 483.0736 1.685061 39.99332 60.00946
46.98334 483.4010 1.683742 40.00291 59.99557
47.01666 483.7328 1.683317 39.99396 60.00106
47.05000 484.0647 1.682933 40.00346 60.00709
47.08333 484.3918 1.681627 40.00525 60.00078
47.11666 484.7222 1.680961 39.99028 59.99869
47.15000 485.0571 1.680862 40.00832 59.99739
47.18334 485.3988 1.681212 40.00196 59.99691
47.21667 485.7387 1.681028 39.99101 59.99682
47.25000 486.0705 1.680004 40.00122 60.00220
47.28333 486.4044 1.679374 39.99882 59.99738
47.31666 486.7389 1.679061 40.00760 60.01395
47.35000 487.0694 1.678269 40.00417 59.98913
47.38334 487.3990 1.677251 39.99951 60.01209
47.41667 487.7266 1.676152 39.98708 59.99231
47.45000 488.0658 1.676688 40.00872 59.99836
47.48334 488.4010 1.676230 39.99568 60.00484
47.51666 488.7342 1.675795 40.00109 59.98891
47.55000 489.0695 1.675265 40.00708 60.00786
47.58333 489.3986 1.674188 39.99703 59.99837
47.61666 489.7284 1.673307 39.99004 60.00261
47.65000 490.0640 1.673286 40.00159 59.99359
47.68334 490.3981 1.672925 40.00035 60.00178
47.71667 490.7326 1.672438 40.01038 59.99246
47.75000 491.0686 1.672162 39.99314 60.01188
47.78333 491.4023 1.671665 40.00070 60.00211
47.81666 491.7315 1.670496 39.99387 59.99348
47.85000 492.0687 1.670689 40.00674 60.00639
47.88334 492.4120 1.671478 40.00646 60.00070
47.91667 492.7496 1.671110 39.99155 59.98836
47.95000 493.0842 1.670611 40.00634 60.00118
47.98334 493.4131 1.669698 39.99216 60.00200
48.01666 493.7412 1.668705 39.99988 60.00406
48.05000 494.0720 1.668435 40.01070 59.99670
48.08333 494.4026 1.667807 39.99428 59.99912
48.11666 494.7370 1.667773 39.99413 60.00598
48.15000 495.0700 1.667137 40.00412 59.99682
48.18334 495.4011 1.666452 39.99580 60.00254
48.21667 495.7348 1.666048 40.00188 59.99434
48.25000 496.0708 1.665915 40.00756 60.01565
48.28333 496.4022 1.664911 39.99374 59.98705
48.31666 496.7328 1.664151 40.00111 60.00190
48.35000 497.0696 1.664125 39.99316 60.00550
48.38334 497.4057 1.664008 40.00828 59.98541
48.41667 497.7402 1.663522 40.00128 60.00196
48.45000 498.0698 1.662440 39.99209 60.00938
48.48334 498.4008 1.661879 40.00208 60.00152
48.51666 498.7340 1.661496 40.00122 59.99527
48.55000 499.0734 1.661966 39.99989 60.01385
48.58333 499.4156 1.662528 40.00150 59.98808
48.61666 499.7531 1.662330 40.00340 59.99650
48.65000 500.0846 1.661483 40.00137 59.99297
48.68334 500.4218 1.661686 39.99410 60.00730
48.71667 500.7579 1.661730 39.99197 59.99470
48.75000 501.0884 1.660938 40.00369 60.01470
48.78333 501.4244 1.661251 40.00508 59.99284
48.81666 501.7531 1.660340 40.00680 59.99878
48.85000 502.0766 1.659051 40.00186 59.99796
48.88334 502.4031 1.658321 39.99812 60.00270
48.91667 502.7302 1.657412 39.98726 60.00162
48.95000 503.0640 1.657181 40.00538 60.00356
48.98334 503.4049 1.657816 40.00410 59.99732
49.01666 503.7398 1.657362 39.99791 59.99790
49.05000 504.0734 1.656474 39.99618 59.98970
49.08333 504.4044 1.655401 40.00059 60.01456
49.11666 504.7350 1.654872 39.99688 59.99834
49.15000 505.0696 1.654766 40.00213 59.99572
49.18334 505.4126 1.655708 40.00291 59.99627
49.21667 505.7514 1.655639 40.00010 60.05120
49.25000 506.0906 1.655624 40.00694 59.99109
49.28333 506.4219 1.654732 39.99142 60.00175
49.31666 506.7541 1.654440 39.99998 60.00368
49.35000 507.0854 1.654158 39.99956 59.99969
49.38334 507.4130 1.653310 40.00606 59.98890
49.41667 507.7390 1.652334 39.99800 60.00912
49.45000 508.0722 1.652333 39.99214 60.00037
49.48334 508.4094 1.652615 40.00816 59.99876
49.51666 508.7468 1.652652 39.99994 59.99348
49.55000 509.0844 1.652585 39.99610 60.00225
49.58333 509.4204 1.652359 39.99770 60.00310
49.61666 509.7502 1.651308 40.00406 59.99205
49.65000 510.0762 1.650106 40.00650 60.00367
49.68334 510.4097 1.649960 39.98880 59.99859
49.71667 510.7516 1.650990 40.00114 59.99712
49.75000 511.0890 1.650920 39.99643 60.01678
49.78333 511.4196 1.650086 40.00160 59.98938
49.81666 511.7500 1.649281 40.00906 59.99988
49.85000 512.0789 1.648594 40.00122 60.00157
49.88334 512.4104 1.648303 40.00091 60.00805
49.91667 512.7488 1.648805 40.00012 59.99906
49.95000 513.0859 1.648922 39.98916 59.98830
49.98334 513.4209 1.648460 40.00964 60.01138
50.01666 513.7520 1.647909 40.00506 59.99106
50.05000 514.0809 1.646762 39.98419 60.00400
50.08333 514.4185 1.647507 40.01778 59.99024
50.11666 514.7506 1.646832 39.99226 59.99629
50.15000 515.0893 1.647217 39.98795 60.02343
50.18334 515.4308 1.647858 40.01152 59.99026
50.21667 515.7612 1.646923 39.99090 60.00106
50.25000 516.0972 1.646988 40.01539 59.99057
50.28333 516.4211 1.645603 39.99702 60.00211
50.31666 516.7539 1.645412 39.98265 60.00980
50.35000 517.0835 1.645027 39.99933 59.99762
50.38334 517.4094 1.643702 40.01991 60.00044
50.41667 517.7442 1.643854 39.99956 59.99188
50.45000 518.0864 1.644762 40.00156 59.99794
50.48334 518.4238 1.644388 39.99032 60.01492
50.51666 518.7700 1.645681 39.98870 59.99820
50.55000 519.1049 1.644951 40.02340 60.00144
50.58333 519.4344 1.643994 39.99081 60.00288
50.61666 519.7554 1.642442 40.00731 59.98943
50.65000 520.0767 1.641018 39.98195 60.00364
50.68334 520.4090 1.641436 40.01914 59.98766
50.71667 520.7450 1.641729 39.98360 60.00928
50.75000 521.0856 1.642175 40.01537 59.99090
50.78333 521.4212 1.641818 39.98150 60.01874
50.81666 521.7574 1.641681 40.00748 60.00302
50.85000 522.0958 1.641834 40.01433 59.97716
50.88334 522.4324 1.641767 39.99402 60.02186
50.91667 522.7630 1.641258 39.99435 59.99602
50.95000 523.0964 1.641145 39.99905 59.97974
50.98334 523.4290 1.640909 40.01016 60.00137
51.01666 523.7609 1.640689 39.98845 60.01775
51.05000 524.0943 1.640661 40.00170 59.98464
51.08333 524.4260 1.640391 40.00350 60.00086
51.11666 524.7524 1.639185 39.98419 60.02158
51.15000 525.0820 1.638678 40.00204 59.99174
51.18334 525.4196 1.639296 39.99750 60.00683
51.21667 525.7537 1.638879 40.02494 59.98598
51.25000 526.0882 1.638709 39.98424 59.99605
51.28333 526.4256 1.638818 40.00828 59.99888
51.31666 526.7642 1.639042 40.00552 60.00324
51.35000 527.0977 1.638736 39.98172 60.01510
51.38334 527.4302 1.638228 40.01553 59.99980
51.41667 527.7632 1.638102 39.99873 59.98157
51.45000 528.0940 1.637711 40.00456 59.99738
51.48333 528.4269 1.637636 40.00100 60.00951
51.51667 528.7570 1.637005 39.98897 59.99668
51.55000 529.0928 1.637287 40.00171 60.00466
51.58333 529.4285 1.637276 40.00311 60.00156
51.61666 529.7649 1.637330 39.98248 60.00160
51.65000 530.0974 1.636707 40.00274 60.00848
51.68334 530.4296 1.636364 39.99860 59.99436
51.71667 530.7639 1.636424 40.01345 59.99310
51.75000 531.0928 1.635788 39.99522 59.99372
51.78333 531.4234 1.635355 39.99572 60.00914
51.81666 531.7560 1.635086 40.01863 59.99146
51.85000 532.0902 1.635042 39.99450 59.99511
51.88334 532.4262 1.635042 39.98851 60.00719
51.91667 532.7642 1.635134 39.99350 60.01304
51.95000 533.0960 1.634662 40.00387 59.98486
51.98333 533.4301 1.634453 40.01248 60.00229
52.01667 533.7652 1.634601 40.00126 59.99840
52.05000 534.1036 1.635143 40.00112 59.99403
52.08333 534.4368 1.634919 39.98569 60.01389
52.11666 534.7644 1.633850 40.01834 59.99646
52.15000 535.0919 1.633034 39.98970 60.01074
52.18334 535.4266 1.633516 39.98722 59.98480
52.21667 535.7637 1.633845 40.00190 59.99878
52.25000 536.0948 1.633147 40.00408 59.99964
52.28333 536.4266 1.632762 39.99973 60.01490
52.31666 536.7596 1.632444 40.00700 59.97958
52.35000 537.0910 1.631991 40.00010 60.01168
52.38334 537.4299 1.632573 40.00296 59.99078
52.41667 537.7675 1.632654 40.00080 60.00668
52.45000 538.1021 1.632569 39.99008 59.99847
52.48332 538.4324 1.631750 40.00653 60.00608
52.51668 538.7661 1.631946 39.99791 60.00156
52.55000 539.1006 1.631810 40.00428 59.99543
52.58332 539.4360 1.631922 39.99008 60.00888
52.61666 539.7718 1.631876 40.01180 59.98910
52.65000 540.1050 1.631565 39.99921 60.00390
52.68334 540.4354 1.631225 39.99994 60.00156
52.71668 540.7647 1.630575 39.99557 59.99700
52.75000 541.0958 1.630348 39.99421 60.00153
52.78332 541.4286 1.630037 40.01191 60.00320
52.81666 541.7652 1.630317 39.98679 60.00153
52.85000 542.0992 1.630270 40.00204 59.99098
52.88334 542.4366 1.630392 39.99996 60.00270
52.91668 542.7710 1.630120 40.00486 60.00286
52.95000 543.1018 1.629576 40.00789 59.99235
52.98332 543.4371 1.629696 39.98848 60.00243
53.01668 543.7728 1.629857 40.00808 60.00434
53.05000 544.1069 1.629703 39.99259 59.99176
53.08332 544.4380 1.629410 39.99872 60.00860
53.11666 544.7699 1.629142 40.00192 59.99488
53.15000 545.1006 1.628844 39.99866 60.00506
53.18334 545.4304 1.628192 39.99790 59.99502
53.21668 545.7594 1.627526 40.00947 60.01428
53.25000 546.0955 1.627790 40.00078 59.99621
53.28332 546.4325 1.627961 39.99166 59.98645
53.31666 546.7693 1.628143 39.99757 60.00952
53.35000 547.1052 1.628108 40.00732 59.99299
53.38334 547.4438 1.628251 40.00470 60.00742
53.41668 547.7776 1.628131 39.98802 59.99254
53.45000 548.1084 1.627490 40.00566 59.99592
53.48332 548.4438 1.627963 39.99619 60.00516
53.51668 548.7844 1.628969 40.00719 60.00876
53.55000 549.1144 1.628192 39.99912 59.99774
53.58332 549.4469 1.628051 40.00428 60.00008
53.61666 549.7795 1.627959 39.99590 59.99922
53.65000 550.1090 1.627322 39.99847 60.00085
53.68334 550.4350 1.626474 40.00023 60.00276
53.71668 550.7627 1.625791 40.00305 59.98906
53.75000 551.0934 1.625502 39.98998 60.00950
53.78332 551.4324 1.626006 40.00881 59.98914
53.81666 551.7706 1.626168 39.99742 60.00574
53.85000 552.1050 1.625618 39.99248 60.00088
53.88334 552.4414 1.625706 40.01112 59.99956
53.91668 552.7780 1.625909 40.00074 59.99482
53.95000 553.1113 1.625301 39.99040 59.99968
53.98332 553.4458 1.625508 40.00912 60.01734
54.01668 553.7836 1.625833 39.99044 59.99109
54.05000 554.1166 1.625404 40.00912 59.98868
54.08332 554.4515 1.625592 39.99324 60.00952
54.11666 554.7844 1.625519 40.00485 59.99931
54.15000 555.1199 1.625784 39.99516 60.00009
54.18334 555.4540 1.625768 40.00099 60.00722
54.21668 555.7826 1.625034 39.99464 59.99746
54.25000 556.1168 1.625184 40.00626 59.99778
54.28332 556.4489 1.625087 40.00130 59.99011
54.31666 556.7776 1.624365 39.99482 60.00274
54.35000 557.1066 1.623692 39.99600 60.00184
54.38334 557.4385 1.623418 40.00589 60.00576
54.41668 557.7712 1.623062 39.99950 60.00032
54.45000 558.1064 1.622845 40.00556 59.99637
54.48332 558.4480 1.623875 39.99859 59.99660
54.51668 558.7896 1.624686 40.00510 60.00199
54.55000 559.1277 1.624604 39.99627 60.00349
54.58332 559.4570 1.623629 39.99782 59.99511
54.61666 559.7919 1.624010 39.99851 60.00984
54.65000 560.1215 1.623636 40.00517 59.99391
54.68334 560.4490 1.623102 39.99054 60.00428
54.71668 560.7788 1.622588 40.00588 59.99840
54.75000 561.1140 1.623057 39.99600 59.99071
54.78332 561.4488 1.623083 40.00218 60.00608
54.81666 561.7809 1.622648 40.00199 59.99014
54.85000 562.1184 1.622954 40.00273 60.01102
54.88334 562.4540 1.623019 39.99925 60.00442
54.91668 562.7895 1.623099 40.00566 59.99018
54.95000 563.1180 1.622273 39.99170 60.01114
54.98332 563.4453 1.621382 40.00385 59.99294
55.01668 563.7755 1.621100 39.99895 60.00290
55.05000 564.1129 1.621819 39.99890 59.99358
55.08332 564.4470 1.621646 39.99842 59.99682
55.11666 564.7821 1.621519 39.99637 60.00560
55.15000 565.1180 1.621546 40.00257 60.00310
55.18334 565.4535 1.621488 39.99762 59.99366
55.21668 565.7900 1.621652 39.99967 60.00213
55.25000 566.1257 1.621986 39.99585 59.99942
55.28332 566.4580 1.621666 40.01521 59.99574
55.31666 566.7902 1.621404 40.00010 59.99804
55.35000 567.1193 1.620952 39.99120 60.00955
55.38334 567.4494 1.620563 39.99939 60.00139
55.41668 567.7821 1.620693 39.99604 60.00507
55.45000 568.1145 1.620244 40.00107 59.99057
55.48332 568.4494 1.620284 40.00204 59.99260
55.51668 568.7848 1.620362 40.00431 60.00742
55.55000 569.1205 1.620409 39.99348 60.00238
55.58332 569.4578 1.620614 40.00615 59.99182
55.61666 569.7920 1.620422 40.00311 60.01946
55.65000 570.1268 1.620479 39.99372 59.98415
55.68334 570.4599 1.620300 39.99834 60.00653
55.71668 570.7926 1.620156 40.00809 59.99562
55.75000 571.1262 1.620319 39.99608 60.00480
55.78332 571.4594 1.620280 40.00568 60.00392
55.81666 571.7900 1.619862 39.99782 60.00018
55.85000 572.1214 1.619559 39.99830 59.99174
55.88334 572.4560 1.619658 40.00144 60.00412
55.91668 572.7891 1.619626 39.99811 59.99552
55.95000 573.1229 1.619306 39.99928 60.00736
55.98332 573.4537 1.618916 39.99683 60.00482
56.01668 573.7876 1.618622 40.00804 59.98592
56.05000 574.1240 1.619026 39.99055 60.00020
56.08332 574.4624 1.619412 39.99840 60.00459
56.11666 574.7981 1.619569 40.01294 60.00157
56.15000 575.1295 1.618877 39.99684 59.99568
56.18334 575.4610 1.618838 39.99652 59.99430
56.21668 575.7950 1.618916 40.00291 60.01180
56.25000 576.1278 1.618711 39.99655 59.99402
56.28332 576.4608 1.618598 40.00112 60.01246
56.31666 576.7922 1.618210 40.00061 59.98957
56.35000 577.1224 1.617654 39.98849 59.99916
56.38334 577.4566 1.617722 40.00668 59.99222
56.41668 577.7926 1.617890 40.00418 60.01339
56.45000 578.1314 1.618398 39.99917 59.99965
56.48332 578.4709 1.618929 40.00594 59.99658
56.51668 578.8050 1.618546 39.99393 60.01063
56.55000 579.1309 1.617528 40.00098 59.98549
56.58332 579.4584 1.616947 40.00378 60.00450
56.61666 579.7905 1.617031 39.99710 59.99814
56.65000 580.1256 1.617191 39.99844 59.99595
56.68334 580.4621 1.617575 40.00120 60.00118
56.71668 580.8018 1.618261 40.00042 60.00130
56.75000 581.1379 1.618303 40.00001 60.00232
56.78332 581.4700 1.617816 39.99817 59.99574
56.81666 581.8002 1.617243 40.00922 60.00562
56.85000 582.1320 1.617107 39.98536 60.00210
56.88334 582.4628 1.617116 40.00613 59.99240
56.91668 582.7969 1.617088 39.99476 60.01270
56.95000 583.1308 1.617065 40.00926 59.99324
56.98332 583.4630 1.616512 39.99791 59.99019
57.01668 583.7940 1.615932 39.99200 60.01229
57.05000 584.1277 1.615944 40.00604 59.99702
57.08332 584.4670 1.616820 40.00061 60.00547
57.11666 584.8055 1.617165 39.99275 59.98606
57.15000 585.1416 1.616936 40.01190 60.00253
57.18334 585.4754 1.616620 39.99347 59.99849
57.21668 585.8008 1.615575 39.99627 59.99770
57.25000 586.1336 1.615845 40.00960 60.00183
57.28332 586.4684 1.616113 39.99685 59.99878
57.31666 586.8040 1.616562 39.99959 59.99809
57.35000 587.1384 1.616382 39.99676 60.00955
57.38334 587.4706 1.616010 40.00026 60.00371
57.41668 587.8030 1.615820 40.00696 59.99590
57.45000 588.1374 1.615897 39.98822 59.99170
57.48332 588.4729 1.615914 40.00505 60.00737
57.51668 588.8123 1.616510 39.99366 59.99570
57.55000 589.1444 1.616066 40.00102 59.99912
57.58332 589.4762 1.615720 40.01029 60.01019
57.61666 589.8072 1.615520 39.99256 59.99363
57.65000 590.1400 1.615604 40.00202 59.99188
57.68334 590.4711 1.615346 39.99889 60.01775
57.71668 590.7997 1.614456 39.99560 59.99011
57.75000 591.1306 1.614026 40.01302 59.99678
57.78332 591.4700 1.614878 39.99892 60.01470
57.81666 591.8051 1.614627 39.99737 60.00062
57.85000 592.1416 1.614528 39.99170 59.99274
57.88334 592.4780 1.614774 40.00006 60.00164
57.91668 592.8171 1.615428 40.00595 59.99050
57.95000 593.1537 1.615658 39.99795 59.99949
57.98332 593.4840 1.615251 40.00359 59.99670
58.01668 593.8104 1.614232 40.00663 60.00190
58.05000 594.1410 1.614324 39.98710 60.00845
58.08332 594.4729 1.614390 40.00788 59.99693
58.11666 594.8038 1.614012 39.99727 59.99639
58.15000 595.1437 1.614827 40.00484 60.00442
58.18334 595.4797 1.614958 39.98574 60.00820
