CLOSED
Version	1.0
Language	English
Run	1
RunSerial	822
Instrument	TGA Q500 V6.7 Build 203
Module	TGA
InstSerial	0500-0499
Operator	at615
File	C:\TA\Data\TGA\ak794\anders\ZIF8cellulose rods sample2.001
FurnaceType	Standard
Sample	ZIF8 cellulose rods in air s2
Size	1.91300	mg
ProcName
Method	
Comment	
Xcomment	Pan: Platinum
Xcomment	Gas1: Air
Xcomment	Gas2: Air
Xcomment	Balance Gas: Air 40.0 ml/min
Xcomment	Sample Gas: Air 60.0 ml/min
Text	Cellulose rods and zif8 degradation in air. Sample 2
Kcell	1.00000
TempCal	3	pts	20.00	20.00,364.00	356.00,776.00	770.00
InstCalDate	Weight Date 2013-03-01 10:10:44
Controls	Gas 2  Event Off  Sampling 2.0
Nsig	5
Sig1	Time (min)
Sig2	Temperature (°C)
Sig3	Weight (mg)
Sig4	Balance Purge Flow (mL/min)
Sig5	Sample Purge Flow (mL/min)
AirCoolTime	20.0 min
AutoAnalysis	Off
MacroFile
Date	2013-03-11
Time	16:25:15
OrgMethod	1: Ramp 10.00 °C/min to 600.00 °C
OrgFile	C:\Users\AIM_Group\Desktop\post doc cambridge\Students files\Internships\Anders\anders tga\anders\ZIF8cellulose sponge extraction component sample2.001
7.33333E-4 18.68135 1.913044 39.98864 59.99692
0.01666667 18.69220 1.912846 39.99882 60.01804
0.05000000 18.71738 1.913158 40.00153 59.99714
0.08333334 18.76951 1.913452 40.00747 59.99682
0.1166666 18.84739 1.913960 40.00814 59.99521
0.1500000 18.94832 1.913820 39.99212 60.00051
0.1833334 19.07352 1.913978 39.98887 60.00184
0.2166667 19.21843 1.914420 40.00632 60.00403
0.2500000 19.38068 1.914537 39.99998 59.99729
0.2833333 19.55965 1.915030 39.99719 59.99532
0.3166666 19.75130 1.915140 40.00421 59.99360
0.3500000 19.95625 1.915239 40.00099 60.00544
0.3833333 20.17365 1.915365 39.99286 60.00510
0.4166666 20.40086 1.915278 40.00617 59.99268
0.4500000 20.63827 1.915839 40.01070 59.99885
0.4833333 20.88252 1.915638 39.99422 60.00579
0.5166666 21.13425 1.915935 40.01224 59.99700
0.5500000 21.39279 1.916307 39.98872 60.00516
0.5833332 21.66011 1.916475 40.00140 60.00130
0.6166668 21.93196 1.916540 40.00092 59.99304
0.6500000 22.21018 1.915949 40.00460 60.01016
0.6833334 22.49217 1.916435 39.98042 59.99592
0.7166666 22.78004 1.916592 40.02072 59.99800
0.7500000 23.07096 1.916762 39.98675 59.99328
0.7833334 23.36688 1.916526 39.99230 60.00566
0.8166668 23.66451 1.916522 40.00821 59.99766
0.8500000 23.96741 1.916628 40.00324 60.00086
0.8833332 24.27332 1.916205 39.99640 60.00792
0.9166668 24.58045 1.916247 39.99620 59.99296
0.9500000 24.89108 1.916237 40.00004 59.99887
0.9833334 25.20348 1.916375 40.00857 59.99998
1.016667 25.51800 1.916466 39.99185 60.00562
1.050000 25.83334 1.916236 40.00556 59.99510
1.083334 26.14979 1.916341 40.00607 59.99878
1.116667 26.46785 1.916390 40.00040 60.00815
1.150000 26.78790 1.916444 39.99135 59.99636
1.183333 27.10758 1.916395 40.00975 59.99898
1.216667 27.42956 1.916361 39.99475 59.99947
1.250000 27.75175 1.916409 39.99850 60.00209
1.283333 28.07438 1.916156 39.99938 59.99539
1.316667 28.39818 1.915618 40.00630 60.00816
1.350000 28.72172 1.915238 39.98973 59.99951
1.383333 29.04496 1.915166 40.00978 59.99244
1.416666 29.37095 1.915261 39.99280 60.00951
1.450000 29.69389 1.914914 40.00542 59.99360
1.483334 30.01756 1.915042 39.99234 60.00500
1.516666 30.34208 1.916124 39.99641 59.99554
1.550000 30.66706 1.916077 40.00033 60.00014
1.583334 30.99260 1.916075 40.00774 59.99208
1.616666 31.31583 1.915784 39.99806 60.00368
1.650000 31.64061 1.915732 39.99480 59.99511
1.683333 31.96485 1.915759 40.01139 60.00408
1.716667 32.28928 1.915812 39.99478 60.00289
1.750000 32.61284 1.915870 39.99344 60.00376
1.783333 32.93561 1.916324 40.00383 59.99354
1.816667 33.25962 1.916663 40.00694 60.01072
1.850000 33.58320 1.916407 39.99036 59.99540
1.883334 33.90675 1.916218 40.00420 60.00276
1.916666 34.22986 1.916058 39.99690 59.99418
1.950000 34.55294 1.915973 40.00388 60.00570
1.983334 34.87558 1.916297 39.99082 59.99600
2.016666 35.19780 1.915942 40.00481 59.99963
2.050000 35.51979 1.915834 40.00228 59.99814
2.083333 35.84278 1.915742 39.99619 60.00520
2.116666 36.16517 1.915586 40.00452 59.98884
2.150000 36.48760 1.915527 40.00100 60.00459
2.183334 36.81004 1.915469 40.00098 59.99540
2.216667 37.13243 1.915369 39.99366 60.00928
2.250000 37.45329 1.915422 40.00609 59.99532
2.283333 37.77485 1.915529 40.00076 59.99812
2.316666 38.09668 1.915486 39.99346 59.99912
2.350000 38.41922 1.915349 40.00510 60.00076
2.383334 38.74226 1.915338 39.99868 60.00864
2.416667 39.06276 1.915262 40.00575 59.99541
2.450000 39.38490 1.915189 39.99859 59.99170
2.483334 39.70750 1.915046 39.99613 60.02601
2.516666 40.03094 1.914951 39.99557 59.98099
2.550000 40.35218 1.914997 40.00563 60.00540
2.583333 40.67500 1.915046 39.99448 59.98934
2.616666 40.99662 1.915209 40.00308 60.01494
2.650000 41.31955 1.915053 40.00364 59.99620
2.683334 41.64120 1.914887 40.00059 59.99414
2.716667 41.96534 1.914840 39.99705 59.99724
2.750000 42.28764 1.914690 39.99414 60.01092
2.783333 42.61048 1.914516 40.00030 59.99287
2.816666 42.93329 1.914744 40.00076 60.00451
2.850000 43.25660 1.914943 40.00412 59.99840
2.883334 43.58116 1.914694 39.99990 59.99403
2.916667 43.90389 1.914564 40.00563 59.99798
2.950000 44.22895 1.914729 39.99665 60.00948
2.983334 44.55373 1.914715 39.99234 59.98984
3.016666 44.87828 1.914784 40.00096 60.01485
3.050000 45.20164 1.914430 40.00614 59.99184
3.083333 45.52610 1.914420 39.99980 60.00004
3.116666 45.84988 1.914386 40.00170 60.00202
3.150000 46.17556 1.914198 39.98868 60.00092
3.183334 46.50064 1.914306 40.00666 59.99670
3.216667 46.82596 1.914454 39.99908 60.00166
3.250000 47.15210 1.914435 39.99955 60.00088
3.283333 47.47803 1.914294 40.00736 59.98933
3.316666 47.80295 1.914065 39.99613 60.00330
3.350000 48.12930 1.914059 40.00305 60.00102
3.383334 48.45634 1.914142 40.00260 60.00488
3.416667 48.78182 1.914127 39.98978 59.99394
3.450000 49.10954 1.914019 40.00170 60.00634
3.483333 49.43566 1.913879 39.99774 60.00032
3.516667 49.76300 1.913856 40.00832 60.00746
3.550000 50.08890 1.913778 40.00221 59.98745
3.583333 50.41597 1.913572 39.99005 60.01415
3.616666 50.74484 1.913956 40.00739 59.98548
3.650000 51.07358 1.914042 39.99075 60.00335
3.683334 51.40044 1.913694 39.99870 60.00606
3.716667 51.72844 1.913622 40.00394 60.00054
3.750000 52.05758 1.913628 40.00031 59.99050
3.783333 52.38506 1.913556 39.99600 60.00463
3.816666 52.71285 1.913527 40.00368 59.99885
3.850000 53.04290 1.913498 40.00446 59.99703
3.883334 53.37178 1.913350 40.00576 60.01110
3.916667 53.70029 1.913807 39.99578 59.98550
3.950000 54.03092 1.913606 39.99536 60.02119
3.983333 54.35950 1.913281 40.00048 59.98069
4.016667 54.68878 1.912598 40.00739 60.00622
4.050000 55.01771 1.912447 40.00144 59.99889
4.083334 55.34812 1.912661 39.99248 59.99822
4.116667 55.67870 1.912726 39.99864 60.00460
4.150000 56.00795 1.912553 39.99477 59.99420
4.183334 56.33774 1.912687 40.01002 59.99652
4.216667 56.66761 1.912708 39.99867 60.00644
4.250000 56.99824 1.912373 40.00113 60.00292
4.283333 57.32837 1.912280 39.99213 59.99502
4.316666 57.65863 1.912361 40.00030 59.99610
4.350000 57.98915 1.912175 40.00864 60.00124
4.383333 58.31982 1.912092 40.00384 59.99851
4.416666 58.65210 1.912237 40.00182 60.00910
4.450000 58.98296 1.912145 39.99105 60.00285
4.483333 59.31456 1.912054 40.00015 59.98987
4.516667 59.64660 1.912144 40.00175 59.99906
4.550000 59.97716 1.911816 39.99002 60.01976
4.583334 60.30980 1.912020 40.01750 59.98188
4.616667 60.64106 1.911976 39.98401 60.00600
4.650000 60.97355 1.911619 40.01328 59.98826
4.683334 61.30391 1.911420 39.98488 60.00576
4.716667 61.63554 1.911435 40.01147 59.99741
4.750000 61.96756 1.911362 39.98994 60.01042
4.783333 62.29730 1.911260 40.01261 60.00137
4.816666 62.62980 1.911155 39.99944 59.98445
4.850000 62.96151 1.911004 39.98613 60.00691
4.883333 63.29312 1.911022 40.00993 60.00079
4.916666 63.62550 1.910880 39.99995 60.00672
4.950000 63.95810 1.910996 40.00340 59.99769
4.983333 64.29210 1.911142 39.99755 59.99768
5.016667 64.62494 1.911198 39.99272 60.00050
5.050000 64.95688 1.911016 40.00005 60.00378
5.083334 65.28894 1.910640 39.99794 59.99982
5.116667 65.62068 1.910317 40.00966 60.00355
5.150000 65.95197 1.910103 40.00551 59.99230
5.183334 66.28530 1.909924 39.99104 59.99817
5.216667 66.61780 1.909890 39.98846 60.01161
5.250000 66.94932 1.909786 40.00540 59.99459
5.283332 67.28231 1.909804 39.99751 59.99924
5.316666 67.61578 1.909728 40.00531 59.99646
5.350000 67.94946 1.909660 39.99844 59.99416
5.383332 68.28124 1.909425 40.01578 60.00822
5.416666 68.61444 1.909211 39.99162 59.99946
5.450000 68.94819 1.909438 40.00086 60.00108
5.483332 69.28161 1.909548 39.99544 60.00085
5.516668 69.61389 1.909116 40.00183 59.99477
5.550000 69.94605 1.908922 39.99840 60.00479
5.583334 70.27819 1.908734 40.00344 59.99454
5.616668 70.61095 1.908499 40.00458 59.99911
5.650000 70.94312 1.908132 39.99974 60.00361
5.683334 71.27651 1.907986 39.98800 59.99045
5.716668 71.61060 1.908092 40.01197 60.01110
5.750000 71.94547 1.908233 39.99519 59.98840
5.783332 72.27955 1.908241 39.99547 60.01452
5.816666 72.61360 1.908002 39.99923 60.00476
5.850000 72.94701 1.907750 40.02293 59.98170
5.883332 73.28144 1.907436 39.99014 60.01146
5.916666 73.61481 1.907140 39.99508 59.99942
5.950000 73.94860 1.906994 40.01018 59.99080
5.983332 74.28318 1.906803 39.98119 60.00750
6.016668 74.61728 1.906568 40.01057 59.99568
6.050000 74.95024 1.906156 39.98906 60.00622
6.083334 75.28507 1.905870 40.01558 59.99098
6.116668 75.61915 1.905889 39.99795 60.00750
6.150000 75.95474 1.905995 40.00156 59.98759
6.183334 76.28912 1.906183 39.99514 60.00348
6.216668 76.62518 1.905956 39.99762 59.99943
6.250000 76.95813 1.905291 39.98862 60.00522
6.283332 77.29147 1.904836 40.00276 60.00370
6.316666 77.62670 1.904955 39.99470 60.00870
6.350000 77.96206 1.905268 40.00041 59.99468
6.383332 78.29452 1.904507 39.99928 59.99594
6.416666 78.62818 1.904221 40.02369 59.99238
6.450000 78.96248 1.903942 39.99710 60.00468
6.483332 79.29693 1.903934 39.99960 59.99384
6.516668 79.62955 1.903431 39.98458 60.00356
6.550000 79.96331 1.903289 40.00933 60.00186
6.583334 80.29834 1.903344 39.98758 59.99972
6.616668 80.63048 1.902676 40.01621 59.99641
6.650000 80.96582 1.902467 40.00506 60.00506
6.683334 81.29876 1.902272 39.98856 59.99668
6.716666 81.63253 1.901896 40.00343 60.00846
6.750000 81.96726 1.901660 40.00363 59.99865
6.783334 82.30010 1.901511 39.98294 59.99480
6.816666 82.63426 1.901170 40.01100 60.00426
6.850000 82.96766 1.900606 39.99866 59.99841
6.883332 83.30074 1.900170 39.99688 60.00165
6.916666 83.63422 1.899948 40.00796 59.99880
6.950000 83.96866 1.899726 39.99922 60.00237
6.983332 84.30219 1.899676 39.99042 60.00280
7.016668 84.63632 1.899475 39.99903 60.00238
7.050000 84.97031 1.899156 40.00522 59.99218
7.083334 85.30322 1.898568 40.00288 60.00105
7.116668 85.63631 1.898100 39.99770 60.00566
7.150000 85.97036 1.897665 39.99732 59.99695
7.183334 86.30316 1.897391 40.01072 59.99506
7.216666 86.63702 1.897156 39.98903 60.01026
7.250000 86.97071 1.896551 40.00574 59.99033
7.283334 87.30311 1.896102 39.99468 60.00175
7.316666 87.63639 1.895676 39.99561 60.00537
7.350000 87.96972 1.895036 40.01341 59.98821
7.383332 88.30274 1.894434 39.98914 60.00704
7.416666 88.63576 1.893971 40.00886 59.99828
7.450000 88.96825 1.893565 39.99844 60.00702
7.483332 89.30132 1.893078 39.99431 59.99437
7.516668 89.63515 1.893019 40.00307 59.99834
7.550000 89.96982 1.892612 40.00647 59.99825
7.583334 90.30226 1.891911 39.99894 59.99892
7.616668 90.63732 1.891574 39.99918 60.00514
7.650000 90.97075 1.891067 39.99237 60.00122
7.683334 91.30285 1.890425 39.99868 59.99272
7.716666 91.63437 1.889539 40.00871 60.01050
7.750000 91.96766 1.888674 40.00025 59.98965
7.783334 92.30038 1.888246 40.00015 60.00112
7.816666 92.63312 1.887694 39.99252 60.00950
7.850000 92.96660 1.887314 39.99789 59.99144
7.883332 93.30191 1.886932 40.01036 60.00469
7.916666 93.63672 1.886306 40.00379 60.00522
7.950000 93.96991 1.885624 39.99600 59.99165
7.983332 94.30536 1.885125 39.98984 60.00332
8.016666 94.63797 1.884188 40.00016 59.99250
8.050000 94.96988 1.883028 39.99775 60.00112
8.083332 95.30158 1.882049 40.00895 60.00828
8.116668 95.63324 1.881304 39.99092 59.99230
8.150000 95.96708 1.880732 40.00344 60.00222
8.183334 96.30066 1.880387 40.00309 59.99972
8.216666 96.63759 1.880337 40.00334 60.00193
8.250000 96.97285 1.879441 39.99933 60.00544
8.283334 97.30639 1.878200 39.99990 59.99200
8.316666 97.64018 1.877489 39.99382 60.00424
8.350000 97.97381 1.876599 40.00025 60.00206
8.383332 98.30899 1.875829 40.00595 60.00460
8.416668 98.64124 1.874716 40.00534 59.99094
8.450000 98.97251 1.873544 39.99310 60.00224
8.483334 99.30434 1.872388 40.00117 59.99688
8.516666 99.63768 1.871642 40.00189 59.99459
8.550000 99.97046 1.870792 40.00035 60.00505
8.583332 100.3041 1.869936 40.00552 59.99982
8.616668 100.6370 1.868995 39.99304 60.01142
8.650000 100.9713 1.867998 39.99538 59.98761
8.683334 101.3048 1.866991 40.00246 60.01055
8.716666 101.6378 1.865761 40.00171 59.98736
8.750000 101.9692 1.864434 40.00304 60.00010
8.783334 102.3052 1.863809 39.99443 60.01121
8.816666 102.6391 1.863016 39.99931 59.99891
8.850000 102.9726 1.861705 40.00769 59.98970
8.883332 103.3034 1.860289 39.99942 60.00352
8.916668 103.6380 1.858986 39.99530 60.01014
8.950000 103.9693 1.857878 40.00366 59.98856
8.983334 104.3035 1.856750 40.00071 60.00146
9.016666 104.6373 1.855352 39.99448 59.99633
9.050000 104.9701 1.854208 39.99953 60.01024
9.083332 105.3018 1.852850 39.99926 59.98608
9.116668 105.6351 1.851470 39.99948 60.01124
9.150000 105.9681 1.850337 40.00774 59.99609
9.183334 106.3001 1.848950 39.99344 60.00014
9.216666 106.6336 1.848035 39.99482 60.00466
9.250000 106.9680 1.846424 40.00216 59.99070
9.283334 107.3013 1.845107 40.01116 60.00699
9.316666 107.6353 1.843721 39.99072 60.00084
9.350000 107.9681 1.842017 40.00802 60.00200
9.383332 108.2989 1.840326 39.99912 60.00112
9.416668 108.6330 1.839093 40.00268 59.99234
9.450000 108.9658 1.837567 39.99204 60.00717
9.483334 109.2972 1.835703 40.01226 59.98988
9.516666 109.6295 1.834115 39.98250 59.99877
9.550000 109.9631 1.832634 40.01019 60.00930
9.583332 110.2978 1.831479 39.98786 59.99737
9.616668 110.6339 1.830112 39.99714 59.99841
9.650000 110.9661 1.828108 40.00162 60.00212
9.683334 111.2990 1.826537 40.01541 59.99551
9.716666 111.6336 1.825282 39.98822 59.99854
9.750000 111.9664 1.823202 40.01365 60.00238
9.783334 112.2998 1.821411 39.99666 60.00066
9.816666 112.6334 1.820078 39.97821 60.00316
9.850000 112.9685 1.818640 40.01828 60.00486
9.883332 113.3004 1.816134 39.99402 59.99600
9.916668 113.6314 1.813730 39.99521 59.98620
9.950000 113.9632 1.811880 40.01022 60.02324
9.983334 114.2948 1.810151 40.01160 59.98426
10.01667 114.6277 1.808430 39.98322 59.99749
10.05000 114.9616 1.806851 40.01659 60.00074
10.08333 115.2987 1.805330 39.98238 60.01382
10.11667 115.6333 1.803446 40.01462 59.99930
10.15000 115.9663 1.801368 39.98166 59.98162
10.18333 116.3002 1.799101 40.00922 60.01144
10.21667 116.6338 1.796894 39.98968 59.99584
10.25000 116.9659 1.794891 40.01570 60.00658
10.28333 117.2998 1.792758 39.99778 59.99541
10.31667 117.6332 1.790596 39.99833 60.01361
10.35000 117.9679 1.788602 39.99369 59.99149
10.38333 118.2982 1.786265 40.00084 59.99848
10.41667 118.6311 1.784218 39.99660 59.99973
10.45000 118.9638 1.781972 39.99956 59.99541
10.48333 119.2952 1.779738 40.01085 60.01098
10.51666 119.6291 1.777848 40.00232 59.98557
10.55000 119.9611 1.775694 39.99582 60.01645
10.58333 120.2938 1.773174 39.99561 59.98832
10.61667 120.6271 1.771092 39.99617 59.99570
10.65000 120.9615 1.769129 40.00860 60.01466
10.68334 121.2940 1.767067 39.99999 59.99705
10.71666 121.6285 1.764834 39.99999 59.99934
10.75000 121.9640 1.763244 39.99422 60.00066
10.78334 122.2987 1.761162 40.01245 59.98650
10.81666 122.6299 1.758334 39.98798 60.00479
10.85000 122.9612 1.756021 40.01132 60.00117
10.88333 123.2971 1.754795 39.98979 60.00660
10.91667 123.6329 1.752878 40.00308 59.99639
10.95000 123.9635 1.750136 39.99996 59.99844
10.98334 124.2948 1.747923 39.99736 60.00264
11.01666 124.6299 1.746539 39.99798 59.99750
11.05000 124.9628 1.744641 40.00214 59.99720
11.08333 125.2970 1.742813 39.99989 60.00103
11.11667 125.6337 1.741617 40.00478 59.99691
11.15000 125.9679 1.739582 39.99460 60.00769
11.18334 126.2989 1.737204 40.01746 60.00560
11.21666 126.6289 1.734866 39.98839 60.00270
11.25000 126.9606 1.733185 39.99365 59.98886
11.28334 127.2947 1.731833 40.00455 60.00992
11.31666 127.6308 1.730919 40.00456 59.99316
11.35000 127.9608 1.728488 39.99727 59.99470
11.38333 128.2914 1.726436 40.00549 60.00590
11.41667 128.6239 1.725283 39.98694 59.99644
11.45000 128.9604 1.724396 40.00561 59.99912
11.48334 129.2966 1.723534 39.99609 59.99956
11.51666 129.6341 1.722696 40.00868 60.00566
11.55000 129.9705 1.721361 39.99950 59.99166
11.58333 130.2990 1.719002 39.99040 60.01116
11.61667 130.6307 1.717783 40.00319 59.99410
11.65000 130.9651 1.716984 40.00094 60.00360
11.68334 131.2969 1.715534 40.00447 60.00702
11.71666 131.6310 1.714655 39.99980 59.99125
11.75000 131.9654 1.713918 39.99844 59.99973
11.78334 132.3000 1.713375 40.00105 60.00117
11.81666 132.6369 1.712951 39.99510 60.00219
11.85000 132.9692 1.711512 39.99710 59.99253
11.88333 133.2977 1.709367 39.99906 60.01020
11.91667 133.6304 1.709125 40.01237 59.98996
11.95000 133.9627 1.708578 39.99560 60.00863
11.98334 134.2961 1.707908 39.99762 59.99429
12.01666 134.6281 1.707009 39.99547 60.00634
12.05000 134.9588 1.705899 40.00300 59.98700
12.08333 135.2959 1.706354 40.00647 60.01592
12.11667 135.6298 1.705646 40.00067 59.98968
12.15000 135.9652 1.705324 39.99630 60.00480
12.18334 136.2978 1.704455 39.99434 59.99945
12.21666 136.6266 1.703188 40.01070 59.99932
12.25000 136.9616 1.703353 39.99627 60.00286
12.28334 137.2996 1.703833 39.98612 59.98344
12.31666 137.6352 1.703528 40.00810 60.01218
12.35000 137.9681 1.702916 40.00693 59.99855
12.38333 138.2992 1.702087 39.99206 60.00020
12.41667 138.6319 1.701753 40.00403 60.00497
12.45000 138.9666 1.701889 40.00215 59.99316
12.48334 139.3004 1.701691 39.99934 60.00988
12.51666 139.6318 1.701040 39.98597 59.98296
12.55000 139.9629 1.700466 40.01944 60.01818
12.58333 140.2954 1.700418 40.00005 59.98282
12.61667 140.6304 1.700728 39.98081 60.00545
12.65000 140.9646 1.700745 40.01694 60.00390
12.68334 141.3023 1.701135 39.99148 59.99625
12.71666 141.6362 1.700714 40.00378 60.00545
12.75000 141.9689 1.700098 39.99946 59.99594
12.78334 142.3026 1.699847 39.99710 60.00729
12.81667 142.6360 1.699927 39.99054 59.98566
12.85000 142.9675 1.699418 39.99967 59.99737
12.88333 143.2999 1.699188 40.02192 60.02027
12.91667 143.6305 1.698623 39.99738 59.98734
12.95000 143.9625 1.698394 39.98524 60.00460
12.98334 144.2938 1.698223 40.00425 59.99239
13.01666 144.6284 1.698636 40.00035 60.00544
13.05000 144.9629 1.698695 39.98809 59.99365
13.08333 145.2950 1.698034 40.01782 60.00635
13.11667 145.6298 1.698422 40.00784 59.99800
13.15000 145.9688 1.699064 39.98056 59.99722
13.18333 146.3008 1.698604 40.00770 60.00302
13.21666 146.6320 1.697826 40.00220 60.01100
13.25000 146.9657 1.698056 40.00252 59.99876
13.28334 147.2996 1.698109 39.99271 59.98891
13.31667 147.6317 1.697906 40.02060 60.00051
13.35000 147.9642 1.697476 39.98062 59.99735
13.38333 148.2940 1.697002 40.00652 60.00326
13.41667 148.6278 1.697242 39.99284 59.99598
13.45000 148.9626 1.697558 40.00482 60.00821
13.48334 149.2987 1.697993 39.99988 59.99710
13.51666 149.6324 1.697634 39.99447 60.00111
13.55000 149.9660 1.697632 40.00485 60.00387
13.58333 150.3008 1.697525 39.99929 59.99002
13.61667 150.6326 1.697194 39.99770 60.00419
13.65000 150.9632 1.696833 39.99961 60.00615
13.68333 151.2956 1.696681 40.00076 60.00309
13.71666 151.6269 1.696489 39.99985 59.99930
13.75000 151.9566 1.696015 40.00434 59.98824
13.78334 152.2870 1.695727 39.99805 60.01048
13.81667 152.6215 1.696097 39.99725 59.99984
13.85000 152.9614 1.697401 40.00600 59.99321
13.88333 153.2981 1.697590 39.99526 60.00532
13.91667 153.6305 1.696732 40.00220 59.98846
13.95000 153.9631 1.696289 40.00388 59.99930
13.98334 154.2930 1.695817 39.99524 60.01360
14.01666 154.6263 1.696085 39.99671 60.00064
14.05000 154.9586 1.695928 40.00457 59.98410
14.08333 155.2948 1.696555 40.00155 60.01270
14.11667 155.6268 1.696232 39.99166 59.99346
14.15000 155.9597 1.696009 40.00623 60.00260
14.18333 156.2917 1.695908 39.99235 59.99962
14.21666 156.6192 1.694916 40.00279 60.00866
14.25000 156.9520 1.694944 39.99605 59.99106
14.28334 157.2882 1.695712 40.00090 60.00309
14.31667 157.6278 1.696755 39.99973 59.99836
14.35000 157.9630 1.696428 40.01112 60.00000
14.38333 158.2986 1.696398 39.98744 60.00764
14.41667 158.6308 1.695716 40.00965 59.98834
14.45000 158.9573 1.694759 39.99158 60.00462
14.48334 159.2879 1.694458 40.00404 59.99510
14.51666 159.6174 1.694472 39.99544 60.01099
14.55000 159.9490 1.694398 39.99883 59.98950
14.58333 160.2814 1.694536 40.01076 60.00374
14.61667 160.6170 1.695108 39.99692 59.99440
14.65000 160.9534 1.695551 40.01978 60.00476
14.68333 161.2901 1.695712 39.97240 59.99856
14.71666 161.6238 1.695296 40.02190 59.99122
14.75000 161.9598 1.695532 39.98476 60.00836
14.78334 162.2932 1.695332 39.99850 60.00650
14.81667 162.6251 1.694911 39.99939 59.99038
14.85000 162.9575 1.694873 40.00140 60.01578
14.88333 163.2881 1.694474 40.00481 59.99541
14.91667 163.6184 1.694197 40.00133 59.98760
14.95000 163.9502 1.694156 39.98496 59.99988
14.98334 164.2826 1.694163 40.00262 60.00500
15.01666 164.6168 1.694644 39.99556 59.99989
15.05000 164.9517 1.694809 40.00500 59.99628
15.08333 165.2825 1.694136 40.00813 59.99780
15.11667 165.6134 1.693740 39.99598 60.01084
15.15000 165.9481 1.694057 40.00804 59.99154
15.18333 166.2843 1.694687 40.00105 60.01006
15.21666 166.6198 1.694708 39.99875 59.99044
15.25000 166.9566 1.695207 40.01008 59.99744
15.28334 167.2942 1.695320 39.98342 59.99830
15.31667 167.6212 1.694018 40.02429 60.01552
15.35000 167.9492 1.693116 39.97342 59.99086
15.38333 168.2784 1.693034 39.99572 60.00262
15.41667 168.6094 1.692951 40.00271 59.99260
15.45000 168.9418 1.693381 40.00242 60.01056
15.48334 169.2769 1.693756 40.00137 59.98938
15.51666 169.6084 1.693212 40.00513 60.01215
15.55000 169.9399 1.693092 40.00088 59.99640
15.58333 170.2771 1.693884 40.00064 59.99963
15.61667 170.6162 1.694368 39.99960 60.00535
15.65000 170.9488 1.693999 39.99533 59.99130
15.68333 171.2801 1.693313 39.99866 60.00014
15.71666 171.6124 1.693049 39.99418 60.00080
15.75000 171.9419 1.692676 40.00183 60.00659
15.78334 172.2719 1.692185 40.01234 59.99895
15.81667 172.6060 1.692760 39.99544 59.99547
15.85000 172.9428 1.693402 39.99411 60.00246
15.88333 173.2784 1.693463 39.99950 59.99746
15.91667 173.6120 1.693276 40.01384 59.99928
15.95000 173.9501 1.693816 39.99298 60.00335
15.98334 174.2851 1.693927 40.01141 60.00491
16.01666 174.6161 1.693006 39.98307 59.99744
16.05000 174.9494 1.693081 40.00594 59.99419
16.08334 175.2781 1.692303 40.00026 60.00037
16.11667 175.6051 1.691698 39.99672 60.00675
16.15000 175.9364 1.691835 40.00032 59.99780
16.18333 176.2708 1.692126 40.00189 59.99862
16.21667 176.6051 1.692596 39.99386 60.00371
16.25000 176.9416 1.693016 40.01102 59.98892
16.28333 177.2751 1.692761 39.99767 60.01402
16.31667 177.6083 1.692562 39.99213 59.99682
16.35000 177.9411 1.692280 40.00390 59.98972
16.38333 178.2716 1.691961 40.00287 60.00064
16.41666 178.6059 1.692262 39.99102 60.00706
16.45000 178.9412 1.692673 40.01182 59.99644
16.48334 179.2765 1.692722 39.99454 59.99688
16.51666 179.6100 1.692462 39.99793 59.99944
16.55000 179.9424 1.692194 40.00485 60.00756
16.58334 180.2732 1.691841 40.00359 59.98364
16.61667 180.6039 1.691693 39.99048 60.00925
16.65000 180.9360 1.691701 40.00488 60.00406
16.68333 181.2681 1.691627 40.00430 60.00176
16.71667 181.6024 1.691839 40.00189 59.99015
16.75000 181.9377 1.692009 39.99017 60.00884
16.78333 182.2721 1.692131 39.99752 59.99524
16.81667 182.6066 1.692114 40.00136 59.99594
16.85000 182.9357 1.691428 40.00394 60.01155
16.88333 183.2652 1.690944 40.00185 59.99944
16.91666 183.6010 1.691582 39.99898 60.00050
16.95000 183.9364 1.691768 39.98987 59.99528
16.98334 184.2715 1.692042 40.00925 59.99535
17.01666 184.6060 1.692111 39.99438 60.00574
17.05000 184.9398 1.691994 39.99990 60.00250
17.08334 185.2726 1.691644 40.00242 59.98693
17.11667 185.6045 1.691389 40.00720 60.00037
17.15000 185.9378 1.691360 39.98914 60.00890
17.18333 186.2697 1.691279 40.01883 60.00214
17.21667 186.6008 1.690969 39.99448 59.99672
17.25000 186.9326 1.690891 39.99956 60.00586
17.28333 187.2647 1.691000 39.98265 59.99539
17.31667 187.5981 1.690964 40.00810 59.98943
17.35000 187.9323 1.691134 39.99942 60.01938
17.38333 188.2659 1.691055 40.01575 59.98861
17.41666 188.5988 1.690996 39.97332 60.00434
17.45000 188.9327 1.690924 40.01912 59.99916
17.48334 189.2641 1.690723 39.99353 60.00328
17.51666 189.5987 1.690865 40.00197 60.00032
17.55000 189.9315 1.690796 39.99636 60.00522
17.58334 190.2630 1.690549 40.00941 59.98776
17.61667 190.5984 1.690821 39.99661 60.01254
17.65000 190.9329 1.690920 40.00813 59.99741
17.68333 191.2676 1.690849 39.98341 59.99795
17.71667 191.5996 1.690635 40.00576 59.99600
17.75000 191.9334 1.690608 40.00390 59.99903
17.78333 192.2659 1.690534 40.00351 59.99793
17.81667 192.6000 1.690635 39.98452 60.00364
17.85000 192.9332 1.690777 40.01616 59.99612
17.88333 193.2689 1.690884 40.00041 59.99790
17.91666 193.6023 1.690791 39.98852 60.00844
17.95000 193.9332 1.690491 40.00726 59.99454
17.98334 194.2652 1.690209 39.99697 59.99884
18.01666 194.5977 1.690107 40.00090 60.01044
18.05000 194.9296 1.690117 40.00020 60.00010
18.08334 195.2634 1.690399 40.00089 59.98725
18.11667 195.5989 1.690579 39.99674 60.00758
18.15000 195.9325 1.690482 39.99570 59.99408
18.18333 196.2646 1.690247 40.00941 60.00951
18.21667 196.5969 1.690037 39.99696 60.00000
18.25000 196.9290 1.689934 39.99907 59.99226
18.28333 197.2637 1.690237 39.99268 60.00587
18.31667 197.5976 1.690215 40.00242 59.99031
18.35000 197.9324 1.690435 40.01090 60.00346
18.38333 198.2614 1.689581 39.98776 60.00174
18.41666 198.5906 1.689023 40.00638 60.00950
18.45000 198.9199 1.688894 39.99112 59.98296
18.48334 199.2533 1.689077 40.00272 60.01552
18.51666 199.5866 1.689406 40.00107 59.99994
18.55000 199.9221 1.689778 40.00828 59.99566
18.58334 200.2582 1.689946 40.00208 59.99707
18.61667 200.5909 1.689791 39.99574 60.00112
18.65000 200.9243 1.689510 40.00663 60.00455
18.68333 201.2566 1.689304 39.99439 60.00113
18.71667 201.5921 1.689428 39.99242 59.98934
18.75000 201.9260 1.689540 40.00840 60.00575
18.78333 202.2589 1.689430 39.99646 59.99397
18.81667 202.5917 1.689330 40.00159 60.00131
18.85000 202.9257 1.689415 39.99869 60.00826
18.88333 203.2587 1.689256 39.99672 59.99553
18.91666 203.5933 1.689462 40.00068 60.00190
18.95000 203.9266 1.689399 39.99855 59.99278
18.98334 204.2585 1.689118 40.00028 60.00513
19.01666 204.5955 1.689852 39.99958 60.00218
19.05000 204.9266 1.689213 40.00476 59.99609
19.08334 205.2589 1.689052 39.99572 60.00899
19.11667 205.5949 1.689526 40.00184 59.98192
19.15000 205.9274 1.689466 39.98902 60.01282
19.18333 206.2591 1.688952 40.01035 60.00500
19.21667 206.5896 1.688572 39.99028 59.99937
19.25000 206.9201 1.688519 40.01224 59.98457
19.28333 207.2534 1.688696 39.98804 60.01368
19.31667 207.5844 1.688497 40.01434 60.00020
19.35000 207.9152 1.688121 40.00406 59.98526
19.38333 208.2470 1.688107 40.00291 60.02116
19.41666 208.5808 1.688317 39.99074 59.98721
19.45000 208.9164 1.688640 40.00274 60.01240
19.48334 209.2511 1.688643 40.00341 59.97937
19.51666 209.5857 1.688736 39.98839 60.01864
19.55000 209.9210 1.688891 40.00670 59.98222
19.58334 210.2560 1.688993 39.98747 60.01144
19.61667 210.5889 1.688777 40.01489 59.99226
19.65000 210.9225 1.688686 39.98208 60.01400
19.68333 211.2532 1.688269 40.00265 59.99413
19.71667 211.5844 1.688069 40.01978 59.98928
19.75000 211.9148 1.687904 39.99585 60.00374
19.78333 212.2440 1.687509 40.00425 60.00412
19.81667 212.5757 1.687644 39.99503 59.99500
19.85000 212.9127 1.687978 40.01401 59.99952
19.88333 213.2482 1.688301 39.98375 60.00606
19.91666 213.5853 1.688623 39.99276 59.99735
19.95000 213.9176 1.688116 40.00866 59.99916
19.98334 214.2520 1.688214 39.99946 59.99084
20.01666 214.5858 1.688233 39.99071 60.01834
20.05000 214.9176 1.687822 40.01675 59.98516
20.08334 215.2522 1.688184 39.98500 60.00816
20.11667 215.5856 1.687952 40.00112 60.00318
20.15000 215.9136 1.687189 40.00264 59.99288
20.18333 216.2439 1.686909 39.99559 60.00414
20.21667 216.5810 1.687833 40.00174 59.99216
20.25000 216.9192 1.688401 39.99718 60.01308
20.28333 217.2552 1.688423 40.00544 59.99348
20.31667 217.5852 1.687427 39.99971 60.00215
20.35000 217.9170 1.687238 40.00693 59.99218
20.38333 218.2480 1.687036 39.99556 60.01194
20.41666 218.5788 1.687049 40.00166 59.99004
20.45000 218.9120 1.687234 40.00244 60.00101
20.48334 219.2488 1.687769 39.99011 60.00914
20.51666 219.5816 1.687674 40.00918 59.99366
20.55000 219.9135 1.687214 39.99475 59.99599
20.58334 220.2451 1.686886 40.00898 59.99797
20.61667 220.5758 1.686920 39.98715 60.00883
20.65000 220.9104 1.686972 40.00448 59.99458
20.68333 221.2433 1.686896 40.00264 60.00956
20.71667 221.5775 1.687057 39.99772 59.99444
20.75000 221.9118 1.687190 40.00198 60.00144
20.78333 222.2489 1.687402 40.00259 59.99765
20.81667 222.5833 1.687471 39.99313 59.99770
20.85000 222.9142 1.686819 40.00028 59.99861
20.88333 223.2455 1.686644 40.00852 60.00176
20.91666 223.5797 1.686831 39.98645 59.99013
20.95000 223.9130 1.686827 39.99775 60.01319
20.98334 224.2454 1.686728 40.00959 59.99172
21.01666 224.5776 1.686676 39.99447 60.01016
21.05000 224.9109 1.686484 39.99683 59.99024
21.08334 225.2445 1.686511 40.00576 60.00150
21.11667 225.5799 1.686926 40.00189 60.00165
21.15000 225.9142 1.686789 40.00588 59.99930
21.18333 226.2468 1.686531 39.99166 60.00594
21.21667 226.5790 1.686357 39.99962 60.00110
21.25000 226.9137 1.686435 40.01019 60.00141
21.28333 227.2480 1.686634 39.99330 59.98812
21.31667 227.5801 1.686455 40.00262 60.01012
21.35000 227.9110 1.686106 40.00364 59.99634
21.38333 228.2434 1.686036 39.98572 59.99343
21.41666 228.5768 1.686112 40.00433 60.01489
21.45000 228.9082 1.685910 39.99847 59.98492
21.48334 229.2399 1.685842 40.00078 59.99755
21.51666 229.5740 1.685866 39.99578 60.00136
21.55000 229.9074 1.686001 40.00056 59.99433
21.58334 230.2415 1.685971 40.01360 60.01696
21.61667 230.5758 1.686091 40.00240 59.99824
21.65000 230.9085 1.685828 39.99562 59.99898
21.68333 231.2419 1.685756 40.00666 59.99786
21.71667 231.5750 1.685718 40.00056 60.00601
21.75000 231.9089 1.685799 39.97680 59.99040
21.78333 232.2409 1.685572 40.00190 59.99690
21.81667 232.5728 1.685392 39.99902 60.00338
21.85000 232.9054 1.685323 40.02385 60.00790
21.88333 233.2396 1.685459 39.98017 59.99609
21.91666 233.5742 1.685611 40.01958 60.00789
21.95000 233.9076 1.685498 39.98758 60.00131
21.98334 234.2412 1.685416 40.01380 59.98364
22.01666 234.5735 1.685233 39.98556 59.99824
22.05000 234.9053 1.685062 39.99462 60.01100
22.08334 235.2383 1.685091 40.00147 59.99847
22.11667 235.5702 1.684889 40.01019 60.00814
22.15000 235.9031 1.684922 39.98880 59.98968
22.18333 236.2402 1.685404 40.00824 60.00526
22.21667 236.5719 1.685090 39.99916 60.00132
22.25000 236.9064 1.685078 39.99411 59.99805
22.28333 237.2393 1.685079 40.00187 60.00240
22.31667 237.5705 1.684842 40.00298 60.00266
22.35000 237.9040 1.684766 39.99616 59.99442
22.38333 238.2372 1.684681 40.00066 60.00511
22.41666 238.5714 1.684763 40.00205 59.99397
22.45000 238.9056 1.684810 39.99330 60.00591
22.48334 239.2351 1.684365 40.00465 59.99368
22.51666 239.5682 1.684337 40.00372 60.00312
22.55000 239.9026 1.684506 40.00066 60.01321
22.58334 240.2352 1.684398 39.99832 59.99254
22.61667 240.5670 1.684180 39.99595 59.99511
22.65000 240.8977 1.683884 40.01991 59.99257
22.68333 241.2288 1.683675 39.97974 60.00142
22.71667 241.5625 1.683733 39.99774 60.00142
22.75000 241.8986 1.684091 39.99974 60.00012
22.78333 242.2308 1.684000 40.01092 59.99864
22.81667 242.5660 1.684123 39.99280 59.99485
22.85000 242.8993 1.683869 39.99910 60.00861
22.88333 243.2331 1.683862 40.00626 60.00305
22.91666 243.5669 1.683879 39.99319 59.98786
22.95000 243.8992 1.683704 39.99800 60.00000
22.98334 244.2325 1.683545 40.00092 60.01130
23.01666 244.5665 1.683844 40.00704 59.99944
23.05000 244.8994 1.683758 39.98933 59.99526
23.08334 245.2344 1.683883 40.00629 60.00606
23.11667 245.5700 1.684054 39.99600 60.00230
23.15000 245.9022 1.683654 40.00557 59.99756
23.18333 246.2314 1.683065 40.00002 60.00140
23.21667 246.5654 1.683263 40.00139 59.99200
23.25000 246.8978 1.683264 40.00628 60.00392
23.28333 247.2289 1.682960 39.99409 59.99830
23.31667 247.5607 1.683040 40.01758 60.00265
23.35000 247.8958 1.683175 39.97575 60.00088
23.38333 248.2316 1.683410 40.00600 59.99749
23.41666 248.5640 1.683173 40.00342 60.00832
23.45000 248.8961 1.682936 39.99442 59.99802
23.48334 249.2262 1.682748 40.00752 59.99445
23.51666 249.5562 1.682194 39.99429 59.99715
23.55000 249.8910 1.682656 40.00952 60.00140
23.58334 250.2257 1.682826 39.97976 59.99358
23.61667 250.5608 1.682906 40.00008 59.99674
23.65000 250.8966 1.682959 40.02005 60.00903
23.68333 251.2318 1.682906 40.00424 60.00544
23.71667 251.5642 1.682703 39.98022 60.00043
23.75000 251.8984 1.682590 40.01242 59.98678
23.78333 252.2306 1.682475 39.98890 60.01642
23.81667 252.5652 1.682437 40.00672 59.99805
23.85000 252.8988 1.682380 39.99353 59.97870
23.88333 253.2282 1.681988 39.99395 60.00446
23.91666 253.5602 1.681764 40.03279 60.01851
23.95000 253.8941 1.681817 39.98860 59.99821
23.98334 254.2288 1.681970 39.97931 59.99149
24.01666 254.5653 1.682248 40.00012 59.99849
24.05000 254.8985 1.682057 40.02114 60.00911
24.08334 255.2324 1.681869 39.98410 59.98937
24.11667 255.5670 1.681869 39.99635 60.00601
24.15000 255.8998 1.681746 40.00581 59.99487
24.18333 256.2322 1.681684 40.00422 60.00028
24.21667 256.5640 1.681394 40.00470 60.00470
24.25000 256.8977 1.681339 39.98990 60.00332
24.28333 257.2293 1.681147 39.99910 59.98799
24.31667 257.5656 1.681256 40.00692 60.01590
24.35000 257.8982 1.681381 40.00355 59.99234
24.38333 258.2315 1.681168 40.00078 60.00120
24.41666 258.5654 1.681036 39.99482 59.99605
24.45000 258.8963 1.680734 40.00645 59.99685
24.48334 259.2292 1.680654 39.99109 60.00659
24.51666 259.5621 1.680678 39.99443 59.99590
24.55000 259.8951 1.680514 40.00750 60.00234
24.58334 260.2301 1.680692 40.00088 59.99192
24.61667 260.5653 1.680795 40.00015 60.00961
24.65000 260.8980 1.680623 39.99638 59.99688
24.68333 261.2320 1.680594 40.00172 59.99820
24.71667 261.5662 1.680532 39.99894 60.00354
24.75000 261.8982 1.680250 39.99841 59.99718
24.78333 262.2314 1.680105 39.99554 59.99960
24.81667 262.5662 1.680223 40.01348 59.99521
24.85000 262.9016 1.680328 39.99535 60.00789
24.88333 263.2336 1.680065 40.00025 59.99530
24.91666 263.5639 1.679596 39.99861 60.00400
24.95000 263.8950 1.679315 39.99666 59.99743
24.98334 264.2280 1.679311 40.00298 60.00361
25.01666 264.5593 1.679341 40.00478 60.00244
25.05000 264.8935 1.679306 39.99183 60.00151
25.08334 265.2256 1.679114 39.99951 60.00180
25.11667 265.5606 1.679174 39.99984 59.99693
25.15000 265.8953 1.679248 40.00837 59.99726
25.18333 266.2291 1.679201 40.01072 59.99826
25.21667 266.5648 1.679233 39.98206 60.00421
25.25000 266.9000 1.679283 40.00133 60.00104
25.28333 267.2342 1.679155 40.00662 60.00434
25.31667 267.5659 1.678826 39.99128 59.98680
25.35000 267.8980 1.678714 40.00114 60.00156
25.38333 268.2289 1.678338 40.01854 59.99459
25.41666 268.5615 1.678400 39.97954 60.00932
25.45000 268.8963 1.678547 40.00227 60.00068
25.48334 269.2304 1.678552 40.00716 59.99818
25.51666 269.5656 1.678484 39.99503 60.00449
25.55000 269.9023 1.678772 40.00710 60.00207
25.58334 270.2311 1.678012 39.98958 59.99975
25.61666 270.5600 1.677506 39.99698 60.00014
25.65000 270.8942 1.677568 40.00640 59.98528
25.68333 271.2256 1.677436 39.99915 60.00445
25.71667 271.5562 1.677165 39.99786 59.99663
25.75000 271.8881 1.676938 39.99997 60.00044
25.78333 272.2196 1.676876 39.99890 60.00850
25.81667 272.5523 1.676786 39.99587 59.99361
25.85000 272.8841 1.676549 40.01160 60.00787
25.88334 273.2204 1.677018 40.00428 59.99380
25.91666 273.5536 1.676671 40.00130 59.99220
25.95000 273.8841 1.676056 39.99822 60.01969
25.98334 274.2248 1.677037 39.99836 59.99543
26.01666 274.5630 1.677343 40.00344 60.00985
26.05000 274.8946 1.676665 39.98928 59.97974
26.08334 275.2244 1.675958 39.99370 59.99690
26.11666 275.5543 1.675612 40.00459 60.00846
26.15000 275.8916 1.676205 39.99316 59.99824
26.18333 276.2246 1.675955 40.00159 60.00280
26.21667 276.5582 1.675859 40.01898 60.00324
26.25000 276.8918 1.676034 39.99010 60.00636
26.28333 277.2276 1.675937 40.00868 59.99520
26.31667 277.5580 1.675489 39.99882 60.00110
26.35000 277.8918 1.675419 39.98196 59.99802
26.38334 278.2249 1.675491 40.00464 60.00242
26.41666 278.5606 1.675609 40.00930 60.00604
26.45000 278.8904 1.675034 40.00586 59.98355
26.48334 279.2200 1.674530 40.00096 60.00902
26.51666 279.5556 1.674878 39.99594 60.00049
26.55000 279.8894 1.674955 39.98511 60.00930
26.58334 280.2195 1.674483 40.01463 59.98852
26.61666 280.5532 1.674450 39.98619 59.99345
26.65000 280.8881 1.674515 39.99643 59.99216
26.68333 281.2188 1.674215 40.00645 60.00652
26.71667 281.5508 1.674005 40.01574 60.01046
26.75000 281.8820 1.673694 39.98434 59.99650
26.78333 282.2128 1.673306 40.01506 60.00054
26.81667 282.5469 1.673350 39.99613 59.99716
26.85000 282.8817 1.673501 39.99616 60.00074
26.88334 283.2147 1.673319 40.00050 59.99668
26.91666 283.5498 1.673294 39.99890 60.00149
26.95000 283.8836 1.673162 39.99444 60.00408
26.98334 284.2180 1.673107 40.00295 59.99324
27.01666 284.5504 1.672894 39.99257 60.00164
27.05000 284.8853 1.672968 40.00278 59.99778
27.08334 285.2170 1.672638 40.00972 60.00981
27.11666 285.5480 1.672250 39.99746 59.99836
27.15000 285.8794 1.671997 40.00192 59.99690
27.18333 286.2114 1.671808 39.99970 60.00100
27.21667 286.5460 1.672054 39.99671 60.00862
27.25000 286.8811 1.672250 40.00042 59.99022
27.28333 287.2122 1.671573 39.99959 59.99954
27.31667 287.5510 1.672231 39.99439 59.99541
27.35000 287.8845 1.671958 40.00254 60.01479
27.38334 288.2140 1.671256 39.99984 59.99496
27.41666 288.5444 1.670854 39.99498 59.99200
27.45000 288.8746 1.670484 40.01255 60.00094
27.48334 289.2082 1.670617 39.98835 59.99597
27.51666 289.5470 1.671308 40.00608 60.01074
27.55000 289.8826 1.671312 40.00730 59.99338
27.58334 290.2142 1.670714 39.99620 59.99490
27.61666 290.5453 1.670341 39.99933 60.00307
27.65000 290.8792 1.670279 40.00285 59.99374
27.68333 291.2096 1.669777 39.99522 60.00865
27.71667 291.5416 1.669579 40.00054 60.00225
27.75000 291.8738 1.669328 40.00728 59.99720
27.78333 292.2068 1.669305 39.98418 60.00342
27.81667 292.5414 1.669536 40.00574 59.99640
27.85000 292.8745 1.669384 39.99989 60.00101
27.88334 293.2118 1.669539 39.99988 60.00424
27.91666 293.5488 1.669618 40.00630 59.99399
27.95000 293.8814 1.669126 39.99543 59.99912
27.98334 294.2124 1.668672 39.99732 60.00250
28.01666 294.5436 1.668444 39.99841 60.00542
28.05000 294.8794 1.668678 40.00008 59.99947
28.08334 295.2136 1.668561 40.00880 59.99004
28.11666 295.5436 1.668060 39.99766 60.00538
28.15000 295.8763 1.667868 39.99887 59.99994
28.18333 296.2080 1.667576 40.00018 60.00321
28.21667 296.5394 1.667180 39.99881 59.99438
28.25000 296.8750 1.667438 39.99653 60.00889
28.28333 297.2112 1.667543 39.99487 59.99738
28.31667 297.5459 1.667352 40.00340 60.00031
28.35000 297.8790 1.667161 40.00391 59.99534
28.38334 298.2115 1.666730 39.99650 60.00792
28.41666 298.5448 1.666606 40.00881 59.98414
28.45000 298.8789 1.666565 39.99999 60.00318
28.48334 299.2116 1.666396 39.99497 60.00210
28.51666 299.5455 1.666170 39.99963 60.00342
28.55000 299.8764 1.665783 40.00063 59.99951
28.58334 300.2060 1.665231 40.01403 60.00014
28.61666 300.5404 1.665406 39.99232 59.99905
28.65000 300.8763 1.665522 40.00090 59.99794
28.68333 301.2102 1.665140 39.99832 59.99221
28.71667 301.5454 1.665319 40.00058 60.00942
28.75000 301.8810 1.665338 40.00240 59.99484
28.78333 302.2162 1.665246 39.99078 60.00066
28.81667 302.5490 1.664969 40.00412 60.00184
28.85000 302.8828 1.664722 39.99448 60.00503
28.88334 303.2149 1.664406 39.99475 59.99671
28.91666 303.5479 1.664344 40.00090 59.99879
28.95000 303.8817 1.664194 40.00725 59.99656
28.98334 304.2134 1.663896 40.00921 60.01182
29.01666 304.5455 1.663720 39.98125 59.99351
29.05000 304.8771 1.663325 40.01623 60.00945
29.08334 305.2085 1.662920 39.98834 59.98847
29.11666 305.5418 1.662822 40.00033 60.01474
29.15000 305.8727 1.662498 39.99238 59.99726
29.18333 306.2064 1.662462 40.00418 59.99479
29.21667 306.5443 1.662661 39.99930 60.00668
29.25000 306.8766 1.662314 39.99848 59.99712
29.28333 307.2089 1.661754 40.01570 60.00110
29.31667 307.5404 1.661381 40.00556 59.99458
29.35000 307.8755 1.661552 39.98767 60.00330
29.38334 308.2120 1.661795 40.00731 59.99414
29.41666 308.5478 1.661782 39.98981 60.00880
29.45000 308.8829 1.661575 40.00705 59.99150
29.48334 309.2166 1.661331 40.00112 59.99482
29.51666 309.5539 1.661480 39.99930 60.00190
29.55000 309.8864 1.661049 39.99818 60.00351
29.58334 310.2173 1.660536 40.00511 59.99600
29.61666 310.5512 1.660434 39.99572 60.00776
29.65000 310.8822 1.660201 39.99952 60.00370
29.68333 311.2145 1.660105 39.99528 59.98652
29.71667 311.5450 1.659738 40.00612 60.00599
29.75000 311.8776 1.659509 39.99507 60.00690
29.78333 312.2110 1.659539 39.99630 59.99450
29.81667 312.5438 1.659371 40.00567 60.00454
29.85000 312.8775 1.659151 40.01474 59.99816
29.88334 313.2104 1.658926 39.99100 59.99708
29.91666 313.5430 1.658623 40.00292 59.99289
29.95000 313.8748 1.658472 39.99447 60.00868
29.98334 314.2063 1.658178 40.00803 59.99346
30.01666 314.5369 1.657636 39.98792 60.00780
30.05000 314.8673 1.657183 39.99450 59.99599
30.08334 315.1987 1.657014 40.00513 60.00552
30.11666 315.5356 1.657312 40.00597 59.99456
30.15000 315.8705 1.657338 39.99782 59.99479
30.18333 316.2060 1.657206 39.99158 60.00393
30.21667 316.5396 1.656991 39.99933 60.00696
30.25000 316.8744 1.656712 40.00889 59.99104
30.28333 317.2082 1.656484 39.99717 60.00950
30.31667 317.5462 1.656918 40.00650 59.99174
30.35000 317.8794 1.656500 39.99731 60.00472
30.38334 318.2125 1.656148 39.99437 59.99265
30.41666 318.5474 1.656194 40.00497 60.00015
30.45000 318.8855 1.656465 39.99074 60.00255
30.48334 319.2229 1.656750 40.00740 60.00292
30.51666 319.5514 1.655754 40.01846 59.99766
30.55000 319.8840 1.655520 39.97970 60.01151
30.58334 320.2078 1.654382 39.99844 59.99916
30.61666 320.5341 1.653721 40.00788 59.98539
30.65000 320.8633 1.653582 39.99756 60.00937
30.68333 321.1980 1.653838 39.99889 59.99946
30.71667 321.5330 1.653838 39.99305 59.99605
30.75000 321.8690 1.654016 40.01365 59.99797
30.78333 322.2045 1.654060 39.99214 60.00762
30.81667 322.5356 1.653256 40.00156 59.98846
30.85000 322.8690 1.652955 39.99181 60.00328
30.88334 323.2017 1.652793 40.01588 60.00596
30.91666 323.5361 1.652678 39.99534 59.98974
30.95000 323.8716 1.652806 39.99218 60.01166
30.98334 324.2066 1.652673 40.00889 59.99104
31.01666 324.5408 1.652361 39.98858 60.01202
31.05000 324.8728 1.652003 40.00654 59.99240
31.08334 325.2052 1.651662 39.99966 59.99921
31.11666 325.5372 1.651488 39.99798 60.00226
31.15000 325.8699 1.651203 39.99212 60.00741
31.18333 326.2012 1.650912 40.01375 59.98606
31.21667 326.5380 1.651027 39.98770 60.01092
31.25000 326.8694 1.650570 40.00000 59.99566
31.28333 327.2045 1.650576 40.00374 59.99820
31.31667 327.5410 1.650674 40.02145 60.00307
31.35000 327.8732 1.650189 39.98058 59.98970
31.38334 328.2070 1.650035 40.02462 59.99570
31.41666 328.5407 1.649930 39.96962 60.01988
31.45000 328.8737 1.649543 40.00860 59.98376
31.48334 329.2044 1.649140 39.99658 60.00012
31.51666 329.5387 1.648984 40.01245 60.00234
31.55000 329.8714 1.648816 39.98152 59.99708
31.58334 330.2062 1.648764 40.01440 59.99830
31.61666 330.5413 1.648710 39.99481 60.01094
31.65000 330.8746 1.648485 39.99450 60.00567
31.68333 331.2078 1.648178 39.99774 59.98918
31.71667 331.5414 1.647994 40.01416 60.01000
31.75000 331.8730 1.647706 39.99236 59.99732
31.78333 332.2024 1.647229 40.01245 59.99691
31.81667 332.5356 1.647059 39.99028 59.99178
31.85000 332.8688 1.646973 40.01815 60.00188
31.88334 333.2044 1.646931 39.97070 60.01780
31.91666 333.5362 1.646545 40.01309 59.98500
31.95000 333.8710 1.646417 40.00441 60.00962
31.98334 334.2064 1.646389 39.99787 59.99231
32.01666 334.5422 1.646452 39.99470 60.00156
32.05000 334.8780 1.646329 40.00195 60.00582
32.08333 335.2115 1.646039 39.99368 59.99520
32.11666 335.5437 1.645480 39.99944 59.99609
32.15000 335.8746 1.644977 39.99861 59.99908
32.18334 336.2046 1.644576 40.00888 60.00770
32.21667 336.5389 1.644501 39.99280 59.99855
32.25000 336.8730 1.644508 40.00787 60.00105
32.28333 337.2080 1.644442 39.99882 59.99382
32.31666 337.5435 1.644364 40.00120 59.99384
32.35000 337.8783 1.644102 39.99375 60.00757
32.38334 338.2115 1.643779 39.99704 59.99902
32.41667 338.5429 1.643352 40.00315 60.01172
32.45000 338.8745 1.643076 40.00652 59.99521
32.48334 339.2047 1.642751 39.98926 60.00102
32.51666 339.5394 1.642771 40.00462 60.00164
32.55000 339.8756 1.643008 40.00270 59.99858
32.58333 340.2132 1.643110 40.00120 60.00015
32.61666 340.5473 1.642748 40.00197 59.99966
32.65000 340.8770 1.641951 40.00391 59.98904
32.68334 341.2093 1.641681 39.98938 60.00970
32.71667 341.5426 1.641671 40.01338 60.00415
32.75000 341.8738 1.641298 39.98395 59.98928
32.78333 342.2065 1.640995 40.01114 59.99602
32.81666 342.5394 1.640796 39.99992 60.00489
32.85000 342.8754 1.640994 39.99091 59.99960
32.88334 343.2114 1.640881 40.00188 60.00192
32.91667 343.5429 1.640358 39.99983 59.99545
32.95000 343.8726 1.639717 39.99695 60.00455
32.98334 344.2047 1.639353 40.00318 60.00299
33.01666 344.5358 1.639168 40.00430 59.99358
33.05000 344.8702 1.638999 39.99887 60.00337
33.08333 345.2064 1.639113 40.00149 59.99887
33.11666 345.5458 1.639744 40.00033 60.00184
33.15000 345.8828 1.639677 39.99445 60.00132
33.18334 346.2148 1.638842 40.00196 60.00292
33.21667 346.5418 1.637771 39.99270 60.00000
33.25000 346.8692 1.637173 40.00340 60.00074
33.28333 347.2004 1.637036 40.00786 60.00162
33.31666 347.5332 1.637025 39.99532 59.99528
33.35000 347.8688 1.637096 39.99748 59.99450
33.38334 348.2083 1.637613 40.01440 60.00661
33.41667 348.5449 1.637269 39.99342 59.99566
33.45000 348.8790 1.636854 39.99067 60.00258
33.48334 349.2155 1.636906 40.00040 59.99988
33.51666 349.5540 1.637214 40.00557 60.00224
33.55000 349.8886 1.636994 39.99722 59.99224
33.58333 350.2189 1.636380 39.99950 59.99864
33.61666 350.5446 1.635241 39.99259 60.00726
33.65000 350.8730 1.634670 40.00608 59.99938
33.68334 351.2060 1.634772 39.99492 59.99726
33.71667 351.5391 1.634854 40.00159 60.00262
33.75000 351.8728 1.634798 40.00134 60.00147
33.78333 352.2075 1.634826 40.00510 60.00470
33.81666 352.5416 1.634583 40.00516 59.99587
33.85000 352.8746 1.634170 40.01184 60.00527
33.88334 353.2086 1.633955 39.98830 59.99474
33.91667 353.5409 1.633532 39.99013 59.99660
33.95000 353.8716 1.633099 40.00795 60.00301
33.98334 354.2058 1.633051 40.00558 59.99814
34.01666 354.5380 1.632762 39.99308 59.99062
34.05000 354.8717 1.632422 40.00420 59.99991
34.08333 355.2058 1.632156 39.99905 60.01894
34.11666 355.5400 1.632164 39.99836 59.98132
34.15000 355.8752 1.632184 39.99688 60.01660
34.18334 356.2113 1.632155 39.99149 59.99506
34.21667 356.5464 1.631918 40.00160 59.99568
34.25000 356.8782 1.631323 40.01138 59.99980
34.28333 357.2102 1.630953 39.98725 59.99262
34.31666 357.5412 1.630704 39.99443 60.01151
34.35000 357.8750 1.630651 40.00622 59.99550
34.38334 358.2079 1.630352 40.00322 60.01206
34.41667 358.5430 1.630200 39.99182 59.99764
34.45000 358.8746 1.629554 40.02058 59.99674
34.48334 359.2096 1.629811 39.98054 60.00046
34.51666 359.5421 1.629425 40.03032 59.99810
34.55000 359.8789 1.629637 39.98726 60.00728
34.58333 360.2132 1.629456 40.01120 59.99119
34.61666 360.5465 1.628991 39.99170 60.00016
34.65000 360.8802 1.628591 39.98021 60.00732
34.68334 361.2131 1.628276 40.01950 59.99514
34.71667 361.5444 1.627874 40.00042 59.99634
34.75000 361.8763 1.627751 40.00034 60.00288
34.78333 362.2138 1.628036 39.98840 59.99843
34.81666 362.5453 1.627492 40.00302 59.99280
34.85000 362.8791 1.627106 39.99252 59.99674
34.88334 363.2125 1.626933 40.01535 60.00122
34.91667 363.5434 1.626465 39.99424 60.00182
34.95000 363.8766 1.626268 40.00260 60.00587
34.98334 364.2122 1.626276 39.99846 59.99008
35.01666 364.5436 1.625795 39.99513 60.00193
35.05000 364.8765 1.625525 40.00192 60.00674
35.08333 365.2106 1.625356 40.00092 60.00270
35.11666 365.5459 1.625000 39.99024 59.99555
35.15000 365.8776 1.624612 40.00210 60.00170
35.18334 366.2117 1.624228 40.00003 59.99444
35.21667 366.5453 1.624146 39.99917 60.00396
35.25000 366.8816 1.624308 40.00103 59.99890
35.28333 367.2194 1.624439 39.99884 60.00092
35.31666 367.5537 1.624044 40.00780 60.00184
35.35000 367.8846 1.623430 39.99886 60.00743
35.38334 368.2148 1.622886 40.00322 59.99220
35.41667 368.5461 1.622467 39.99682 60.00420
35.45000 368.8752 1.622116 39.99934 59.99473
35.48334 369.2062 1.621756 40.00317 59.99558
35.51666 369.5464 1.622495 40.00300 60.01305
35.55000 369.8822 1.622490 39.99664 59.99111
35.58333 370.2150 1.621658 39.99944 60.00478
35.61666 370.5495 1.621695 39.99887 59.99560
35.65000 370.8810 1.621214 40.00122 59.99416
35.68334 371.2183 1.621443 39.99530 60.00644
35.71667 371.5506 1.620935 40.00018 59.99380
35.75000 371.8807 1.620100 40.00243 60.01050
35.78333 372.2110 1.619757 40.00281 59.98735
35.81666 372.5425 1.619437 39.99716 60.01085
35.85000 372.8776 1.619511 40.00964 60.00535
35.88334 373.2114 1.619180 39.98413 59.98820
35.91667 373.5425 1.618671 40.01417 60.00290
35.95000 373.8804 1.618804 39.98772 60.00171
35.98334 374.2153 1.618650 40.02072 59.99348
36.01666 374.5478 1.618030 39.98335 60.00459
36.05000 374.8809 1.617638 40.00325 60.00428
36.08333 375.2145 1.617541 39.99585 60.00024
36.11666 375.5503 1.617404 39.99826 59.99818
36.15000 375.8865 1.617268 40.00880 60.00852
36.18334 376.2208 1.616899 39.99625 59.99989
36.21667 376.5524 1.616314 39.99771 59.98736
36.25000 376.8864 1.615925 40.00559 60.01062
36.28333 377.2198 1.615736 39.99816 59.99407
36.31666 377.5506 1.615268 39.99347 60.00154
36.35000 377.8838 1.615270 40.00133 59.99102
36.38334 378.2186 1.615339 40.00058 60.00144
36.41667 378.5539 1.615030 40.00150 60.00771
36.45000 378.8877 1.614686 39.99933 59.98750
36.48334 379.2195 1.614182 40.00422 60.01876
36.51666 379.5508 1.613680 39.99106 59.99308
36.55000 379.8848 1.613535 40.00586 60.01132
36.58333 380.2163 1.613072 40.00390 59.99106
36.61666 380.5481 1.612698 40.00248 60.00387
36.65000 380.8842 1.612682 39.99055 59.99450
36.68334 381.2193 1.612428 40.00734 60.00929
36.71667 381.5510 1.611932 39.99850 59.99135
36.75000 381.8822 1.611472 40.00368 59.99560
36.78333 382.2170 1.611329 39.98718 60.00956
36.81666 382.5503 1.610825 40.00908 59.99322
36.85000 382.8828 1.610466 39.99250 59.99294
36.88334 383.2160 1.610142 40.00698 60.00743
36.91667 383.5506 1.609860 39.99236 59.99738
36.95000 383.8866 1.609662 40.01354 60.00666
36.98334 384.2216 1.609471 40.00130 59.99244
37.01666 384.5544 1.609099 39.98578 60.00145
37.05000 384.8869 1.608433 40.00094 59.98908
37.08333 385.2210 1.608208 40.01485 60.01858
37.11666 385.5538 1.607954 39.98752 59.98762
37.15000 385.8859 1.607472 39.99266 60.00068
37.18334 386.2172 1.606927 40.00359 60.00144
37.21667 386.5540 1.607036 40.00018 60.00009
37.25000 386.8867 1.606577 40.00400 60.00332
37.28333 387.2200 1.606042 40.00048 59.99639
37.31666 387.5544 1.605719 40.00455 60.00562
37.35000 387.8874 1.605470 40.00326 60.00692
37.38334 388.2219 1.605119 39.99372 59.98839
37.41667 388.5534 1.604503 40.00694 60.01142
37.45000 388.8868 1.604107 40.00144 60.00072
37.48334 389.2190 1.603732 39.99566 59.99044
37.51666 389.5522 1.603420 39.98439 60.00310
37.55000 389.8854 1.603097 40.00842 59.99098
37.58333 390.2200 1.602792 40.00500 60.00842
37.61666 390.5537 1.602315 40.00454 60.00732
37.65000 390.8862 1.601765 39.98631 59.97744
37.68334 391.2216 1.601647 40.00574 60.01171
37.71667 391.5533 1.601078 39.99982 60.00062
37.75000 391.8833 1.600064 39.99591 59.99829
37.78333 392.2162 1.599766 39.99457 60.00516
37.81666 392.5511 1.599738 40.01574 60.00594
37.85000 392.8882 1.599596 39.99988 59.99158
37.88334 393.2214 1.599268 39.98820 59.99055
37.91667 393.5563 1.598751 40.01204 60.00418
37.95000 393.8883 1.598176 39.98948 60.01048
37.98334 394.2200 1.597636 40.01572 59.98694
38.01666 394.5538 1.597312 39.98196 60.01257
38.05000 394.8890 1.597081 39.99480 59.99701
38.08333 395.2222 1.596692 40.00500 60.00042
38.11666 395.5536 1.595909 40.00116 59.99340
38.15000 395.8824 1.594878 40.00288 60.00599
38.18334 396.2110 1.594048 40.00636 59.99218
38.21667 396.5453 1.593832 40.00226 60.00828
38.25000 396.8837 1.594245 39.98480 59.99989
38.28333 397.2226 1.594108 40.01048 59.99886
38.31666 397.5522 1.592698 39.99602 59.99407
38.35000 397.8846 1.592016 40.00269 59.99597
38.38334 398.2144 1.591259 40.00228 60.01157
38.41667 398.5503 1.591154 39.99546 59.98881
38.45000 398.8889 1.591109 40.00744 60.00630
38.48334 399.2265 1.590957 39.99063 60.01060
38.51666 399.5600 1.589979 40.00362 59.99743
38.55000 399.8918 1.589137 40.00506 59.99439
38.58333 400.2280 1.588743 40.00080 59.99361
38.61666 400.5662 1.588810 39.98964 60.00301
38.65000 400.9014 1.588286 40.02275 60.00500
38.68334 401.2302 1.587040 39.98018 59.99454
38.71667 401.5619 1.586375 40.01256 59.99996
38.75000 401.8955 1.586015 39.98888 60.00020
38.78333 402.2290 1.585446 39.99412 60.00630
38.81666 402.5625 1.584820 40.01007 60.00183
38.85000 402.8941 1.584109 39.99363 59.98813
38.88334 403.2276 1.583421 40.00737 60.00435
38.91667 403.5642 1.583318 39.99321 59.99986
38.95000 403.9026 1.583099 40.00731 60.00410
38.98334 404.2365 1.582354 39.98722 60.00200
39.01666 404.5690 1.581536 40.00238 60.00691
39.05000 404.9000 1.580676 40.00628 59.98388
39.08333 405.2315 1.579789 40.00112 59.99955
39.11666 405.5660 1.579439 39.99125 60.01282
39.15000 405.8978 1.578640 40.01153 59.99498
39.18334 406.2286 1.577611 40.01440 59.99613
39.21667 406.5568 1.576345 39.98537 60.00060
39.25000 406.8892 1.575767 40.00574 60.00335
39.28333 407.2236 1.575427 39.99306 59.99350
39.31666 407.5660 1.575755 39.98888 60.00505
39.35000 407.9019 1.575010 40.00704 60.01044
39.38334 408.2303 1.573407 40.00310 59.97882
39.41667 408.5656 1.572937 39.99008 60.00420
39.45000 408.9032 1.572784 40.01202 60.00438
39.48334 409.2363 1.571751 39.99942 60.00872
39.51666 409.5675 1.570688 39.99558 59.99578
39.55000 409.8970 1.569722 40.00532 59.99799
39.58333 410.2276 1.568989 39.99076 60.00708
39.61666 410.5606 1.568194 40.00494 59.98532
39.65000 410.8940 1.567602 39.99963 60.00512
39.68334 411.2287 1.566762 39.99443 59.99199
39.71667 411.5615 1.565921 40.00136 60.00516
39.75000 411.8942 1.564999 40.00140 60.01309
39.78333 412.2260 1.563924 40.00852 59.98644
39.81666 412.5596 1.563029 39.99297 59.99738
39.85000 412.8920 1.561986 40.02326 60.00220
39.88334 413.2246 1.561050 39.96969 60.01040
39.91667 413.5598 1.560405 39.99982 59.99844
39.95000 413.8974 1.559816 40.00457 59.99016
39.98334 414.2322 1.558958 40.00848 60.01289
40.01666 414.5652 1.557795 39.98997 59.98299
40.05000 414.8971 1.556562 40.00300 60.01713
40.08333 415.2274 1.555383 40.00063 59.98243
40.11666 415.5628 1.554761 39.99853 60.00895
40.15000 415.9020 1.554431 40.00910 60.00338
40.18334 416.2393 1.553764 39.98936 60.00411
40.21667 416.5728 1.552453 40.01035 59.98400
40.25000 416.9026 1.551045 39.98776 60.01150
40.28333 417.2337 1.549724 39.99778 59.99336
40.31666 417.5635 1.548439 39.99817 60.00842
40.35000 417.8928 1.547073 39.99890 60.00082
40.38334 418.2238 1.545936 40.01530 59.99360
40.41667 418.5583 1.544947 40.00594 60.00658
40.45000 418.8937 1.544121 39.98730 60.00660
40.48334 419.2272 1.542659 39.99742 59.97990
40.51666 419.5586 1.541181 40.00288 60.00864
40.55000 419.8924 1.539904 40.00710 59.99584
40.58333 420.2266 1.538835 40.00402 60.00362
40.61666 420.5614 1.537526 39.99104 59.99482
40.65000 420.8939 1.536142 40.00995 60.00212
40.68334 421.2270 1.534796 39.98867 60.00276
40.71667 421.5596 1.533258 40.00880 59.99712
40.75000 421.8926 1.531897 39.98691 60.00545
40.78333 422.2278 1.530724 40.00070 60.00168
40.81666 422.5637 1.529525 40.00099 59.98481
40.85000 422.9002 1.528274 40.00015 60.00660
40.88334 423.2342 1.526672 40.01010 60.00014
40.91667 423.5646 1.524841 39.99422 60.00352
40.95000 423.8950 1.523186 40.00607 60.00491
40.98334 424.2244 1.521336 39.99866 60.00271
41.01666 424.5567 1.519772 39.99390 59.99145
41.05000 424.8897 1.518075 40.00665 59.99780
41.08333 425.2246 1.516560 39.99079 60.01014
41.11666 425.5598 1.515039 40.00667 59.99344
41.15000 425.8958 1.513587 40.00264 60.01318
41.18334 426.2297 1.511956 39.99795 59.99646
41.21667 426.5670 1.510384 39.99231 59.99570
41.25000 426.9008 1.508485 40.00235 59.99180
41.28333 427.2334 1.506563 39.99705 60.00120
41.31666 427.5664 1.504775 40.01981 60.01087
41.35000 427.8978 1.502728 39.98346 59.99594
41.38334 428.2300 1.500824 40.00557 59.99397
41.41667 428.5670 1.499474 40.00098 60.00735
41.45000 428.9032 1.497536 40.00452 59.99534
41.48334 429.2384 1.495673 39.99385 59.99186
41.51666 429.5731 1.493994 39.99882 60.00870
41.55000 429.9047 1.491975 39.99950 60.00136
41.58333 430.2388 1.490150 40.00154 59.99800
41.61666 430.5704 1.487862 39.99330 59.99505
41.65000 430.8956 1.485022 40.00735 60.01239
41.68334 431.2258 1.482739 39.99771 59.99039
41.71667 431.5574 1.480539 39.99396 60.00688
41.75000 431.8914 1.478599 40.00794 59.99858
41.78333 432.2308 1.476954 39.99691 60.00348
41.81666 432.5705 1.475376 40.00443 59.98779
41.85000 432.9040 1.472666 40.01132 60.00215
41.88334 433.2381 1.470107 39.98794 60.00288
41.91667 433.5744 1.468111 39.99700 59.99716
41.95000 433.9092 1.465952 40.00437 59.99800
41.98334 434.2426 1.463823 39.99984 60.00924
42.01666 434.5753 1.461740 40.00086 59.99791
42.05000 434.9082 1.459626 39.98818 60.00292
42.08333 435.2404 1.457212 40.00400 59.99974
42.11666 435.5722 1.454652 40.00623 59.98972
42.15000 435.9047 1.452268 40.00189 59.99837
42.18334 436.2390 1.450062 39.99353 60.01526
42.21667 436.5726 1.447716 39.99548 59.99702
42.25000 436.9068 1.445193 40.00980 59.99041
42.28333 437.2396 1.442674 39.99495 60.00684
42.31666 437.5741 1.440097 40.00094 60.00087
42.35000 437.9094 1.437769 40.00241 59.98894
42.38334 438.2411 1.435370 40.00465 60.00220
42.41667 438.5725 1.432758 39.99158 59.99761
42.45000 438.9054 1.430082 39.99382 60.00075
42.48334 439.2402 1.427575 40.00318 60.00405
42.51666 439.5738 1.424928 40.01440 60.00507
42.55000 439.9130 1.422802 39.98752 59.99824
42.58333 440.2491 1.420274 40.00375 60.00826
42.61666 440.5854 1.417614 39.99338 59.98888
42.65000 440.9183 1.415026 40.02230 60.01161
42.68334 441.2488 1.411826 39.98450 59.98962
42.71667 441.5784 1.408705 39.99528 60.01011
42.75000 441.9068 1.405610 39.99710 59.99690
42.78333 442.2400 1.402979 40.00609 59.98837
42.81666 442.5740 1.400345 40.00432 60.00786
42.85000 442.9061 1.397307 39.99642 59.99478
42.88334 443.2402 1.394148 39.99960 60.00251
42.91667 443.5728 1.391155 39.99228 60.00700
42.95000 443.9062 1.387994 40.00410 59.99834
42.98334 444.2406 1.384877 39.99843 59.99600
43.01666 444.5752 1.381804 39.99626 60.00498
43.05000 444.9118 1.378846 40.01763 59.98394
43.08333 445.2476 1.375814 39.99684 59.99834
43.11666 445.5822 1.372438 39.98642 60.01135
43.15000 445.9148 1.369030 40.01026 59.99446
43.18334 446.2489 1.365704 40.01068 60.01189
43.21667 446.5824 1.362404 39.98743 59.99104
43.25000 446.9158 1.358918 39.98860 60.01212
43.28333 447.2476 1.355342 40.00757 59.98952
43.31666 447.5790 1.351707 40.00482 60.00310
43.35000 447.9120 1.348248 39.99161 59.99504
43.38334 448.2498 1.345332 40.00602 60.00504
43.41667 448.5785 1.341024 39.99588 59.99855
43.45000 448.9102 1.337134 40.00117 60.00344
43.48334 449.2472 1.334106 40.01192 59.99710
43.51666 449.5828 1.330575 39.97794 59.99763
43.55000 449.9160 1.326618 40.01234 60.00466
43.58333 450.2454 1.322264 40.00364 59.99668
43.61666 450.5800 1.318776 40.00732 59.99451
43.65000 450.9136 1.315024 39.97970 60.00120
43.68334 451.2438 1.310878 40.00138 60.01484
43.71667 451.5752 1.306968 40.01007 59.99965
43.75000 451.9074 1.303073 39.98616 59.99066
43.78333 452.2396 1.299040 40.01252 59.99656
43.81666 452.5732 1.295234 39.98540 60.01155
43.85000 452.9109 1.291725 40.01495 59.99954
43.88334 453.2414 1.287289 39.99106 59.99472
43.91667 453.5760 1.283574 40.01686 59.98930
43.95000 453.9103 1.279727 40.00273 60.00253
43.98334 454.2426 1.275724 39.98645 60.00874
44.01666 454.5796 1.272178 40.00063 60.01168
44.05000 454.9133 1.268319 40.00431 59.97838
44.08333 455.2434 1.263784 40.00345 60.00726
44.11666 455.5701 1.259261 40.00438 59.99268
44.15000 455.8948 1.255158 39.98161 60.00742
44.18334 456.2272 1.251143 40.01146 59.99578
44.21667 456.5656 1.247485 39.99708 59.99941
44.25000 456.9021 1.243300 40.00824 60.00505
44.28333 457.2338 1.238699 39.98701 59.99818
44.31666 457.5665 1.233955 40.00950 60.00599
44.35000 457.8966 1.228892 39.98614 59.99640
44.38334 458.2287 1.224850 40.00483 60.00451
44.41667 458.5643 1.220904 40.00720 59.99962
44.45000 458.9041 1.217415 39.98564 60.00188
44.48334 459.2418 1.213375 40.00290 59.99511
44.51666 459.5798 1.209034 40.01917 59.99882
44.55000 459.9166 1.204761 39.99325 60.00687
44.58333 460.2549 1.200606 39.98748 59.98932
44.61666 460.5888 1.196154 40.00052 60.00870
44.65000 460.9225 1.191535 40.00556 59.99878
44.68334 461.2522 1.186863 40.00415 60.00496
44.71667 461.5822 1.181798 39.99742 59.99350
44.75000 461.9084 1.176211 40.00125 59.99339
44.78333 462.2398 1.171085 39.99060 60.00126
44.81666 462.5784 1.167209 40.01071 59.99888
44.85000 462.9164 1.162701 39.99709 60.00688
44.88334 463.2522 1.157722 40.00711 59.99401
44.91667 463.5840 1.152466 39.99557 59.99692
44.95000 463.9152 1.146852 39.98859 60.00508
44.98334 464.2493 1.141874 40.01286 60.00281
45.01666 464.5840 1.137109 40.00105 59.99756
45.05000 464.9140 1.132033 39.99798 59.99739
45.08333 465.2518 1.127102 39.99658 59.99721
45.11666 465.5922 1.121772 40.00321 60.00590
45.15000 465.9285 1.116252 40.00240 59.99588
45.18334 466.2622 1.110663 40.00880 60.00741
45.21667 466.5934 1.105040 39.98163 59.99969
45.25000 466.9200 1.098840 40.00694 59.99640
45.28333 467.2514 1.093628 40.00252 60.00695
45.31666 467.5887 1.089036 40.00528 59.99818
45.35000 467.9210 1.083254 39.98437 60.00500
45.38334 468.2506 1.077608 40.00174 59.98880
45.41667 468.5848 1.071873 40.00058 60.00302
45.45000 468.9167 1.066113 40.01077 60.00250
45.48334 469.2532 1.060654 39.99394 59.99694
45.51666 469.5865 1.054862 39.99410 59.99186
45.55000 469.9203 1.049247 39.99878 60.01078
45.58333 470.2488 1.043023 40.01361 59.99649
45.61666 470.5766 1.037028 39.98761 59.99518
45.65000 470.9067 1.031000 40.00686 60.01197
45.68334 471.2440 1.025396 40.00175 59.98906
45.71667 471.5796 1.019682 39.99104 59.99361
45.75000 471.9120 1.013688 40.00742 60.00904
45.78333 472.2469 1.008039 40.00404 60.00180
45.81666 472.5817 1.002648 39.99664 60.00530
45.85000 472.9094 0.9964376 39.99727 59.99216
45.88334 473.2391 0.9906775 40.00328 60.00220
45.91667 473.5708 0.9852924 39.99989 59.99924
45.95000 473.9036 0.9802334 40.00024 60.00196
45.98334 474.2343 0.9746982 40.00517 59.99366
46.01666 474.5646 0.9690345 39.98582 60.00546
46.05000 474.8945 0.9634460 40.00929 59.99835
46.08333 475.2252 0.9580505 39.99541 59.99956
46.11666 475.5578 0.9528848 39.99756 59.99646
46.15000 475.8910 0.9476434 40.00280 60.00062
46.18334 476.2222 0.9423488 39.99803 59.99810
46.21667 476.5554 0.9372725 40.00452 60.00324
46.25000 476.8890 0.9323548 40.00080 60.00772
46.28333 477.2224 0.9272901 39.99240 59.99555
46.31666 477.5538 0.9221645 39.99903 59.99418
46.35000 477.8830 0.9169384 40.00659 60.00120
46.38334 478.2154 0.9120434 39.99890 60.00920
46.41667 478.5491 0.9073039 39.99600 59.99721
46.45000 478.8794 0.9020220 40.00286 59.99535
46.48334 479.2110 0.8969788 40.00952 59.99656
46.51666 479.5439 0.8921897 39.99980 60.00278
46.55000 479.8764 0.8869782 39.98685 60.00515
46.58333 480.2054 0.8813755 40.00230 59.99137
46.61666 480.5385 0.8765764 40.00889 60.00684
46.65000 480.8728 0.8718781 40.01213 60.00278
46.68334 481.2071 0.8670313 39.98436 59.99108
46.71667 481.5462 0.8627174 39.99578 59.99819
46.75000 481.8820 0.8582506 39.99254 60.01686
46.78333 482.2211 0.8541955 40.01106 59.99004
46.81666 482.5582 0.8501992 39.99810 60.00212
46.85000 482.8916 0.8456900 39.99381 59.99653
46.88334 483.2246 0.8414735 40.00404 60.01320
46.91667 483.5552 0.8372684 39.99770 59.98611
46.95000 483.8881 0.8332760 40.00906 59.99559
46.98334 484.2175 0.8289242 39.99031 60.00930
47.01666 484.5515 0.8252238 40.01030 60.00090
47.05000 484.8866 0.8216381 39.99414 59.98993
47.08333 485.2224 0.8180946 39.99610 60.00231
47.11666 485.5604 0.8150391 39.99685 60.00219
47.15000 485.8970 0.8116100 40.01596 59.99200
47.18334 486.2320 0.8082801 39.99420 60.01707
47.21667 486.5688 0.8051709 39.99382 59.99864
47.25000 486.9032 0.8019675 40.00874 60.00295
47.28333 487.2371 0.7985840 40.00444 59.99761
47.31666 487.5714 0.7958160 39.98140 59.99992
47.35000 487.9042 0.7927360 40.01640 59.99844
47.38334 488.2354 0.7896656 39.98650 60.00161
47.41667 488.5682 0.7868726 39.99972 59.99879
47.45000 488.9018 0.7842376 40.01998 59.99615
47.48334 489.2344 0.7816094 39.97950 60.00130
47.51666 489.5692 0.7792947 39.99974 59.99809
47.55000 489.9028 0.7768419 40.01541 60.00024
47.58333 490.2408 0.7750732 39.99780 59.99276
47.61666 490.5774 0.7732999 39.98222 60.01820
47.65000 490.9135 0.7713151 39.99704 59.99460
47.68334 491.2503 0.7695588 40.00336 59.99700
47.71667 491.5846 0.7676501 40.01291 59.99766
47.75000 491.9150 0.7654400 39.99590 60.00230
47.78333 492.2488 0.7639516 40.00856 60.00366
47.81666 492.5828 0.7625497 39.98394 60.00412
47.85000 492.9170 0.7610511 40.00713 59.99636
47.88334 493.2481 0.7592370 39.99866 60.00459
47.91667 493.5790 0.7575370 39.99437 59.98645
47.95000 493.9126 0.7562537 40.00056 60.01605
47.98334 494.2480 0.7551376 40.01328 59.98768
48.01666 494.5820 0.7538993 40.00622 59.98950
48.05000 494.9160 0.7527442 40.00267 60.01190
48.08333 495.2519 0.7519585 39.98890 59.99976
48.11666 495.5860 0.7510275 39.99704 59.99110
48.15000 495.9211 0.7501662 39.99070 60.00596
48.18334 496.2550 0.7491919 40.01560 59.98952
48.21667 496.5890 0.7484012 39.98294 60.00896
48.25000 496.9232 0.7477102 40.01602 60.00994
48.28333 497.2556 0.7468776 39.98883 59.99800
48.31666 497.5867 0.7460658 40.00428 59.99195
48.35000 497.9244 0.7458155 40.00920 59.99946
48.38334 498.2602 0.7453485 40.00059 60.00200
48.41667 498.5934 0.7446958 39.99920 60.00117
48.45000 498.9288 0.7440305 39.98259 59.99752
48.48334 499.2616 0.7434056 40.01436 60.00882
48.51666 499.5952 0.7427682 39.98594 59.98690
48.55000 499.9284 0.7422900 40.00832 60.02375
48.58333 500.2629 0.7419051 40.00754 59.98526
48.61666 500.5996 0.7417092 39.98836 59.99319
48.65000 500.9363 0.7414680 40.02255 59.99882
48.68334 501.2730 0.7412168 39.97386 60.01225
48.71667 501.6086 0.7408884 40.03065 59.98586
48.75000 501.9424 0.7404968 39.97674 60.00860
48.78333 502.2741 0.7398457 40.01282 60.00041
48.81666 502.6022 0.7387982 39.99642 59.99773
48.85000 502.9322 0.7384409 39.99840 59.99919
48.88334 503.2660 0.7385082 39.99962 59.99930
48.91667 503.6026 0.7387520 39.99328 59.99871
48.95000 503.9365 0.7382292 40.00684 59.99885
48.98334 504.2704 0.7377270 39.99727 59.99472
49.01666 504.6033 0.7374088 40.00083 59.99872
49.05000 504.9382 0.7373004 39.99578 60.00961
49.08333 505.2732 0.7373114 40.00294 60.00058
49.11666 505.6078 0.7369851 39.98678 59.99818
49.15000 505.9422 0.7367574 40.00894 60.00568
49.18334 506.2732 0.7362488 40.01419 59.99635
49.21667 506.6079 0.7361900 39.99214 59.99860
49.25000 506.9440 0.7363507 40.01121 60.00457
49.28333 507.2791 0.7360840 39.98672 60.00335
49.31666 507.6106 0.7357313 40.00642 59.98736
49.35000 507.9416 0.7354493 39.99174 60.00593
49.38334 508.2748 0.7355225 40.00604 60.00437
49.41667 508.6085 0.7354355 39.99682 59.99074
49.45000 508.9430 0.7353765 39.99375 60.00876
49.48334 509.2774 0.7352920 40.00215 59.99200
49.51666 509.6104 0.7349726 39.99574 60.00918
49.55000 509.9442 0.7348690 40.00904 59.99382
49.58333 510.2780 0.7348219 39.99834 59.99965
49.61666 510.6119 0.7346847 40.00056 60.00865
49.65000 510.9437 0.7345139 39.99717 59.98829
49.68334 511.2792 0.7345150 40.00611 60.00342
49.71667 511.6137 0.7345103 39.99660 60.00890
49.75000 511.9474 0.7343955 39.99600 59.99626
49.78333 512.2804 0.7341047 39.99472 59.99384
49.81666 512.6116 0.7338732 40.00192 60.00415
49.85000 512.9432 0.7337906 39.99904 59.99220
49.88334 513.2761 0.7336524 40.01263 60.00368
49.91667 513.6117 0.7340345 40.00513 60.00522
49.95000 513.9470 0.7341775 39.99294 59.99258
49.98334 514.2799 0.7338144 40.01062 60.00756
50.01666 514.6144 0.7338866 39.97873 59.99476
50.05000 514.9494 0.7340626 40.00989 60.00869
50.08333 515.2822 0.7338593 39.99883 59.99470
50.11666 515.6131 0.7335184 40.00037 60.00288
50.15000 515.9461 0.7334030 39.99984 60.00178
50.18334 516.2802 0.7335303 39.99917 59.99080
50.21667 516.6133 0.7335730 39.99422 60.00551
50.25000 516.9487 0.7334753 39.99829 59.99742
50.28333 517.2812 0.7333235 40.00444 60.00121
50.31666 517.6146 0.7332704 40.00161 60.00466
50.35000 517.9488 0.7332136 40.00019 59.99016
50.38334 518.2828 0.7331982 39.99700 59.99727
50.41667 518.6153 0.7329876 40.00070 60.01359
50.45000 518.9478 0.7326503 40.00972 60.00059
50.48334 519.2832 0.7329780 39.99368 59.99300
50.51666 519.6184 0.7329424 40.01027 59.99444
50.55000 519.9521 0.7330092 39.99078 60.01336
50.58333 520.2854 0.7329907 40.00607 60.00116
50.61666 520.6209 0.7330968 39.98506 59.98921
50.65000 520.9550 0.7332012 40.00203 60.00457
50.68334 521.2908 0.7334600 40.00916 60.00257
50.71667 521.6241 0.7332330 39.99248 59.98764
50.75000 521.9535 0.7328701 40.00814 60.00606
50.78333 522.2847 0.7325890 39.99894 60.00214
50.81666 522.6162 0.7325811 39.99942 60.00040
50.85000 522.9472 0.7322876 39.99748 60.00538
50.88334 523.2836 0.7326119 40.00022 59.99754
50.91667 523.6162 0.7324118 40.00275 60.00230
50.95000 523.9503 0.7322714 39.99978 59.99707
50.98334 524.2838 0.7323566 39.99348 59.98850
51.01666 524.6164 0.7321007 40.00079 60.00930
51.05000 524.9505 0.7320435 40.00414 60.00630
51.08333 525.2879 0.7324991 39.99503 59.98172
51.11666 525.6262 0.7329160 40.00830 60.00961
51.15000 525.9584 0.7325951 39.99178 59.99896
51.18334 526.2890 0.7322158 40.00302 60.00154
51.21667 526.6216 0.7322063 39.99286 60.00210
51.25000 526.9530 0.7319736 40.00752 59.99900
51.28333 527.2890 0.7322293 40.00896 59.99980
51.31666 527.6246 0.7325890 40.01116 59.99532
51.35000 527.9562 0.7322993 39.98093 60.01168
51.38334 528.2888 0.7321387 39.99300 59.98554
51.41667 528.6221 0.7320840 40.00442 60.00149
51.45000 528.9534 0.7317681 40.00604 60.01406
51.48333 529.2860 0.7317442 40.00094 59.99426
51.51667 529.6196 0.7318707 39.99136 59.98961
51.55000 529.9520 0.7318255 40.00811 60.00626
51.58333 530.2873 0.7317806 39.99150 60.00729
51.61666 530.6224 0.7318362 40.00782 59.99045
51.65000 530.9572 0.7319034 39.99014 60.00434
51.68334 531.2918 0.7319850 39.99792 59.99708
51.71667 531.6270 0.7321600 40.01058 60.00300
51.75000 531.9602 0.7320044 39.98995 60.00356
51.78333 532.2900 0.7315350 40.00514 59.99804
51.81666 532.6245 0.7315571 39.99646 60.00205
51.85000 532.9570 0.7315655 39.99680 59.99002
51.88334 533.2889 0.7312426 40.00295 60.00908
51.91667 533.6236 0.7314156 40.00844 59.98614
51.95000 533.9597 0.7320387 40.00394 60.01599
51.98333 534.2925 0.7316434 39.99200 59.98959
52.01667 534.6240 0.7312866 40.00522 60.01480
52.05000 534.9620 0.7318382 39.99406 59.98635
52.08333 535.2965 0.7319951 39.99290 60.01032
52.11666 535.6280 0.7315191 40.01184 59.99395
52.15000 535.9625 0.7318934 39.99886 59.99136
52.18334 536.2957 0.7318830 39.99433 60.01059
52.21667 536.6291 0.7317329 40.00508 59.99450
52.25000 536.9616 0.7316985 39.99344 59.99887
52.28333 537.2943 0.7316060 40.00022 59.99834
52.31666 537.6264 0.7312959 39.99942 60.00670
52.35000 537.9582 0.7311509 40.01454 59.99741
52.38334 538.2918 0.7312963 39.98536 60.00337
52.41667 538.6232 0.7309782 40.00250 60.00516
52.45000 538.9576 0.7309449 40.00052 59.98830
52.48332 539.2915 0.7308170 40.00728 60.01012
52.51668 539.6276 0.7312486 39.99461 59.99635
52.55000 539.9624 0.7314164 39.99548 59.99568
52.58332 540.2966 0.7311624 40.00464 60.00068
52.61666 540.6306 0.7309194 39.99100 60.00790
52.65000 540.9632 0.7308946 40.01834 59.99282
52.68334 541.2970 0.7311382 39.98271 60.00657
52.71668 541.6304 0.7310288 40.02112 59.99060
52.75000 541.9648 0.7312650 39.98774 60.00581
52.78332 542.2976 0.7312170 40.00872 59.99468
52.81666 542.6303 0.7310512 39.97815 59.99376
52.85000 542.9621 0.7309305 39.99922 60.00933
52.88334 543.2950 0.7307105 40.00333 59.98870
52.91668 543.6312 0.7309838 40.01572 60.02060
52.95000 543.9654 0.7310540 40.00270 60.00051
52.98332 544.2992 0.7310368 39.99066 59.98826
53.01668 544.6365 0.7315540 39.99905 60.01396
53.05000 544.9678 0.7310634 40.01142 59.98918
53.08332 545.3009 0.7309937 39.99000 60.00500
53.11666 545.6350 0.7311056 40.00586 59.99397
53.15000 545.9644 0.7306750 39.98268 59.99100
53.18334 546.2970 0.7305159 40.00828 60.01289
53.21668 546.6295 0.7305190 40.01370 60.01207
53.25000 546.9630 0.7304550 39.99834 59.99545
53.28332 547.2971 0.7303810 39.99204 59.98274
53.31666 547.6343 0.7306631 40.01079 60.00284
53.35000 547.9691 0.7306576 39.99050 60.00235
53.38334 548.3037 0.7307159 40.01294 60.00210
53.41668 548.6360 0.7306674 39.97739 60.00330
53.45000 548.9700 0.7307239 40.01356 60.01108
53.48332 549.3022 0.7307411 40.00010 59.98662
53.51668 549.6359 0.7307732 40.00052 59.99560
53.55000 549.9692 0.7306725 39.99924 60.00654
53.58332 550.3028 0.7306480 39.99565 59.98868
53.61666 550.6350 0.7305108 39.99586 60.01384
53.65000 550.9678 0.7303534 40.01046 59.98707
53.68334 551.3000 0.7304038 39.99154 59.99828
53.71668 551.6308 0.7301936 40.00783 59.99816
53.75000 551.9669 0.7305010 40.00358 60.01350
53.78332 552.3016 0.7305032 39.99228 59.99882
53.81666 552.6356 0.7302922 39.99458 60.00982
53.85000 552.9720 0.7306016 39.99460 59.99168
53.88334 553.3049 0.7304780 40.01945 60.00396
53.91668 553.6426 0.7311657 39.98744 59.98918
53.95000 553.9734 0.7305182 39.99106 59.99705
53.98332 554.3054 0.7302142 40.00113 60.01407
54.01668 554.6387 0.7302309 40.01553 60.00280
54.05000 554.9736 0.7301532 40.00188 59.99295
54.08332 555.3093 0.7300828 39.99575 60.00840
54.11666 555.6456 0.7300844 40.00372 59.98628
54.15000 555.9814 0.7300750 40.00358 59.99787
54.18334 556.3166 0.7300495 39.98723 60.00654
54.21668 556.6529 0.7301620 40.00305 59.99638
54.25000 556.9863 0.7300772 39.99371 60.00634
54.28332 557.3188 0.7298691 40.00670 59.99805
54.31666 557.6521 0.7298497 40.00331 59.98430
54.35000 557.9850 0.7297934 40.00274 60.01283
54.38334 558.3190 0.7298494 39.99226 59.99250
54.41668 558.6534 0.7299122 40.00594 60.00582
54.45000 558.9902 0.7303376 39.99495 60.00005
54.48332 559.3241 0.7302939 40.00378 60.00330
54.51668 559.6563 0.7300760 39.98418 59.99252
54.55000 559.9912 0.7302113 39.99979 60.00544
54.58332 560.3264 0.7304602 40.02392 59.98884
54.61666 560.6592 0.7303912 39.98508 60.02220
54.65000 560.9900 0.7300271 40.01220 59.98796
54.68334 561.3216 0.7300226 39.99469 59.99714
54.71668 561.6530 0.7298614 39.99975 59.99855
54.75000 561.9860 0.7298000 39.99306 60.00426
54.78332 562.3188 0.7296668 40.01261 60.00224
54.81666 562.6506 0.7294490 39.99488 60.00290
54.85000 562.9835 0.7293809 39.99974 59.99640
54.88334 563.3172 0.7293972 39.99878 60.00202
54.91668 563.6515 0.7294160 39.99638 59.99953
54.95000 563.9870 0.7296374 40.00006 59.99170
54.98332 564.3220 0.7297891 40.00122 60.00476
55.01668 564.6570 0.7298991 39.99639 60.00437
55.05000 564.9907 0.7300072 40.00946 59.99451
55.08332 565.3224 0.7298629 39.98610 59.99879
55.11666 565.6535 0.7296078 40.00860 60.00571
55.15000 565.9844 0.7294731 40.00325 60.00352
55.18334 566.3174 0.7295422 39.99866 59.99031
55.21668 566.6532 0.7299219 39.98926 59.99698
55.25000 566.9901 0.7302149 40.01254 60.00480
55.28332 567.3250 0.7302224 39.99765 60.00356
55.31666 567.6572 0.7300544 40.01754 60.00469
55.35000 567.9919 0.7301519 39.97843 59.99006
55.38334 568.3222 0.7295513 40.00620 60.00476
55.41668 568.6500 0.7289243 39.99994 60.00255
55.45000 568.9816 0.7287796 40.00589 59.99508
55.48332 569.3174 0.7291626 39.98252 59.99888
55.51668 569.6503 0.7290634 40.01492 60.00440
55.55000 569.9862 0.7290338 39.98553 59.99360
55.58332 570.3236 0.7297776 40.00104 60.00202
55.61666 570.6611 0.7299722 40.00890 60.00434
55.65000 570.9904 0.7292240 39.99244 59.99600
55.68334 571.3238 0.7293168 40.00804 60.00046
55.71668 571.6587 0.7297485 39.99322 59.99960
55.75000 571.9894 0.7291416 40.00167 59.99882
55.78332 572.3172 0.7285426 39.99009 60.00239
55.81666 572.6526 0.7291056 40.01103 59.99924
55.85000 572.9872 0.7292419 40.00570 60.00210
55.88334 573.3258 0.7296270 39.98953 60.00224
55.91668 573.6663 0.7305200 39.99606 60.00418
55.95000 574.0002 0.7303855 40.00250 59.99305
55.98332 574.3276 0.7294597 39.99426 60.00508
56.01668 574.6521 0.7285592 40.01091 59.99888
56.05000 574.9854 0.7288842 39.99182 59.99903
56.08332 575.3188 0.7290799 40.00978 59.99874
56.11666 575.6516 0.7287940 39.98962 59.99747
56.15000 575.9878 0.7290270 40.01038 59.99943
56.18334 576.3237 0.7291032 39.99722 60.00686
56.21668 576.6576 0.7289102 39.99474 59.99055
56.25000 576.9898 0.7286868 40.01110 60.00780
56.28332 577.3240 0.7287976 39.99568 59.99922
56.31666 577.6574 0.7289669 40.00538 59.99086
56.35000 577.9906 0.7287792 39.99698 60.00400
56.38334 578.3230 0.7286671 39.99480 59.98806
56.41668 578.6560 0.7286000 40.00342 60.01161
56.45000 578.9941 0.7291726 40.00421 59.99293
56.48332 579.3330 0.7297570 39.99564 60.01184
56.51668 579.6684 0.7299270 40.00074 59.99652
56.55000 579.9970 0.7291934 39.99752 60.00751
56.58332 580.3252 0.7284918 40.00780 59.99118
56.61666 580.6554 0.7284180 39.99588 59.99522
56.65000 580.9879 0.7286431 40.01722 60.00274
56.68334 581.3206 0.7283764 39.98428 60.00948
56.71668 581.6543 0.7281824 40.01206 59.99131
56.75000 581.9900 0.7282976 39.98860 59.99705
56.78332 582.3257 0.7282822 39.98868 60.01078
56.81666 582.6627 0.7284162 40.00990 59.99695
56.85000 582.9994 0.7286120 40.00031 59.99401
56.88334 583.3438 0.7300312 39.99713 60.00226
56.91668 583.6824 0.7303749 40.00108 60.00865
56.95000 584.0070 0.7288536 40.00170 60.00488
56.98332 584.3332 0.7285564 39.98750 59.99645
57.01668 584.6604 0.7284076 40.00917 59.99258
57.05000 584.9965 0.7287189 39.99473 59.99902
57.08332 585.3318 0.7288939 40.00062 59.99640
57.11666 585.6642 0.7284125 40.01160 60.00352
57.15000 585.9971 0.7283630 39.99331 60.00486
57.18334 586.3307 0.7283196 39.99982 59.99182
57.21668 586.6640 0.7279878 39.99714 60.00730
57.25000 586.9966 0.7279558 39.99864 59.99868
57.28332 587.3312 0.7278945 39.99982 59.99678
57.31666 587.6660 0.7280824 40.00557 59.99540
57.35000 588.0021 0.7281304 39.99939 60.00365
57.38334 588.3368 0.7282344 40.00186 59.99912
57.41668 588.6707 0.7280655 39.99938 60.00885
57.45000 589.0030 0.7279778 39.99334 59.98702
57.48332 589.3370 0.7281676 40.00145 60.01365
57.51668 589.6688 0.7278587 40.00182 60.00072
57.55000 590.0024 0.7278057 40.00234 59.99108
57.58332 590.3366 0.7280829 39.99704 60.00772
57.61666 590.6716 0.7279478 40.00737 59.99937
57.65000 591.0050 0.7281012 39.98504 60.00008
57.68334 591.3394 0.7280978 40.00532 59.99254
57.71668 591.6753 0.7282694 39.99980 60.00304
57.75000 592.0088 0.7283775 39.99876 59.99590
57.78332 592.3420 0.7282550 40.01068 59.99834
57.81666 592.6718 0.7278186 39.99830 60.00991
57.85000 593.0030 0.7276878 40.00118 59.99487
57.88334 593.3390 0.7282859 39.99814 60.01248
57.91668 593.6738 0.7282959 39.99560 59.97813
57.95000 594.0070 0.7281012 40.00070 60.01201
57.98332 594.3406 0.7278738 40.00129 60.00282
58.01668 594.6738 0.7278810 40.00524 59.99780
58.05000 595.0082 0.7278279 40.01125 59.99646
58.08332 595.3426 0.7278280 39.98560 60.00300
